* Measurement data measured by REW V5.20.8
* Source: ASIO hdspfire, Analog 1 (1)
* Format: 4M Log Swept Sine, 1 sweep at -12.0 dBFS with no timing reference
* Dated: 13 juin 2022 14:21:29
* REW Settings:
*  C-weighting compensation: Off
*  Target level: 75.0 dB
* Note: ; 
* Measurement: on_0x1400_3_4 juin 13
* Smoothing: None
* Frequency Step: 0.36621094 Hz
* Start Frequency: 0.36621094 Hz
*
* Freq(Hz) SPL(dB) Phase(degrees)
0.366211 14.116 144.9229
0.732422 9.940 71.3418
1.098633 15.804 -7.2643
1.464844 20.584 -39.6158
1.831055 22.536 -62.5464
2.197266 21.960 -84.4914
2.563477 17.271 -114.9958
2.929688 14.024 113.3009
3.295898 25.085 65.4683
3.662109 30.078 43.4805
4.028320 32.375 26.4565
4.394531 32.581 16.2032
4.760742 31.428 24.8364
5.126953 34.109 53.4275
5.493164 39.759 57.2172
5.859375 44.120 44.5328
6.225586 47.119 26.3256
6.591797 49.054 6.2745
6.958008 50.107 -13.7969
7.324219 50.400 -32.2333
7.690430 50.086 -46.7741
8.056641 49.596 -54.5527
8.422852 49.872 -55.3824
8.789062 51.464 -56.1558
9.155273 53.589 -62.1638
9.521484 55.460 -71.6246
9.887695 56.881 -81.0575
10.253906 58.035 -87.8649
10.620117 59.336 -91.4249
10.986328 61.108 -94.0358
11.352539 63.197 -98.7756
11.718750 65.189 -106.3877
12.084961 66.797 -115.6735
12.451172 67.928 -124.9058
12.817383 68.640 -132.3464
13.183594 69.156 -136.5337
13.549805 69.875 -137.2769
13.916016 71.136 -136.8567
14.282227 72.848 -138.4801
14.648438 74.635 -143.3285
15.014648 76.212 -150.6722
15.380859 77.464 -159.2977
15.747070 78.382 -168.1280
16.113281 79.011 -176.2986
16.479492 79.443 176.8425
16.845703 79.811 171.6179
17.211914 80.266 167.7886
17.578125 80.906 164.4857
17.944336 81.707 160.6483
18.310547 82.550 155.6808
18.676758 83.300 149.6879
19.042969 83.873 143.2631
19.409180 84.258 137.1868
19.775391 84.522 132.1512
20.141602 84.795 128.4256
20.507812 85.217 125.5433
20.874023 85.831 122.4441
21.240234 86.549 118.2048
21.606445 87.220 112.6171
21.972656 87.726 106.1179
22.338867 88.019 99.4380
22.705078 88.117 93.3094
23.071289 88.102 88.2439
23.437500 88.087 84.3297
23.803711 88.145 81.1669
24.169922 88.297 78.1303
24.536133 88.488 74.8225
24.902344 88.654 71.2936
25.268555 88.769 67.8864
25.634766 88.865 64.9114
26.000977 89.001 62.3724
26.367188 89.220 59.9164
26.733398 89.505 57.0782
27.099609 89.791 53.6154
27.465820 90.005 49.6412
27.832031 90.104 45.5317
28.198242 90.079 41.7653
28.564453 89.961 38.8003
28.930664 89.811 36.9933
29.296875 89.722 36.5095
29.663086 89.804 37.1837
30.029297 90.150 38.3939
30.395508 90.783 39.1788
30.761719 91.631 38.6821
31.127930 92.565 36.5505
31.494141 93.471 32.9517
31.860352 94.279 28.3425
32.226562 94.967 23.2409
32.592773 95.545 18.0800
32.958984 96.049 13.1285
33.325195 96.519 8.4679
33.691406 96.984 4.0367
34.057617 97.452 -0.2659
34.423828 97.917 -4.4805
34.790039 98.373 -8.5574
35.156250 98.829 -12.4144
35.522461 99.305 -16.0339
35.888672 99.823 -19.5248
36.254883 100.385 -23.0904
36.621094 100.974 -26.9129
36.987305 101.558 -31.0455
37.353516 102.107 -35.3918
37.719727 102.615 -39.7752
38.085938 103.092 -44.0476
38.452148 103.563 -48.1766
38.818359 104.047 -52.2633
39.184570 104.543 -56.4730
39.550781 105.033 -60.9236
39.916992 105.491 -65.6116
40.283203 105.896 -70.4166
40.649414 106.247 -75.1686
41.015625 106.555 -79.7288
41.381836 106.843 -84.0444
41.748047 107.127 -88.1524
42.114258 107.418 -92.1320
42.480469 107.714 -96.0452
42.846680 108.012 -99.9086
43.212891 108.316 -103.7149
43.579102 108.631 -107.4770
43.945312 108.959 -111.2516
44.311523 109.297 -115.1181
44.677734 109.635 -119.1276
45.043945 109.961 -123.2659
45.410156 110.268 -127.4612
45.776367 110.559 -131.6329
46.142578 110.846 -135.7502
46.508789 111.143 -139.8602
46.875000 111.453 -144.0654
47.241211 111.767 -148.4629
47.607422 112.070 -153.0900
47.973633 112.346 -157.9102
48.339844 112.589 -162.8450
48.706055 112.802 -167.8250
49.072266 112.993 -172.8279
49.438477 113.168 -177.8867
49.804688 113.327 176.9363
50.170898 113.461 171.5918
50.537109 113.559 166.0730
50.903320 113.609 160.4197
51.269531 113.605 154.6986
51.635742 113.546 148.9757
52.001953 113.437 143.2952
52.368164 113.281 137.6742
52.734375 113.079 132.1138
53.100586 112.829 126.6183
53.466797 112.527 121.2119
53.833008 112.169 115.9446
54.199219 111.757 110.8843
54.565430 111.294 106.1008
54.931641 110.790 101.6470
55.297852 110.257 97.5477
55.664062 109.703 93.8000
56.030273 109.136 90.3865
56.396484 108.561 87.2928
56.762695 107.982 84.5186
57.128906 107.405 82.0698
57.495117 106.841 79.9342
57.861328 106.300 78.0547
58.227539 105.791 76.3252
58.593750 105.305 74.6230
58.959961 104.824 72.8696
59.326172 104.323 71.0781
59.692383 103.782 69.3617
60.058594 103.200 67.8953
60.424805 102.585 66.8501
60.791016 101.962 66.3315
61.157227 101.358 66.3499
61.523438 100.791 66.8447
61.889648 100.271 67.7440
62.255859 99.805 69.0022
62.622070 99.405 70.5825
62.988281 99.091 72.4004
63.354492 98.875 74.2908
63.720703 98.756 76.0430
64.086914 98.721 77.4750
64.453125 98.742 78.4791
64.819336 98.797 79.0171
65.185547 98.865 79.0916
65.551758 98.926 78.7354
65.917969 98.961 78.0205
66.284180 98.957 77.0623
66.650391 98.909 75.9988
67.016602 98.825 74.9490
67.382812 98.719 73.9717
67.749023 98.602 73.0541
68.115234 98.478 72.1440
68.481445 98.341 71.2026
68.847656 98.182 70.2437
69.213867 97.994 69.3323
69.580078 97.777 68.5548
69.946289 97.539 67.9836
70.312500 97.288 67.6624
70.678711 97.035 67.6141
71.044922 96.790 67.8535
71.411133 96.565 68.3835
71.777344 96.375 69.1775
72.143555 96.232 70.1628
72.509766 96.143 71.2343
72.875977 96.110 72.2837
73.242188 96.126 73.2212
73.608398 96.186 73.9674
73.974609 96.281 74.4402
74.340820 96.396 74.5652
74.707031 96.506 74.3179
75.073242 96.589 73.7657
75.439453 96.626 73.0675
75.805664 96.619 72.4229
76.171875 96.585 71.9880
76.538086 96.554 71.8015
76.904297 96.548 71.7671
77.270508 96.577 71.7207
77.636719 96.630 71.5366
78.002930 96.690 71.1914
78.369141 96.748 70.7395
78.735352 96.808 70.2344
79.101562 96.877 69.6606
79.467773 96.958 68.9333
79.833984 97.040 67.9603
80.200195 97.099 66.7184
80.566406 97.116 65.2830
80.932617 97.079 63.7992
81.298828 96.992 62.4214
81.665039 96.867 61.2607
82.031250 96.718 60.3677
82.397461 96.557 59.7528
82.763672 96.393 59.4252
83.129883 96.234 59.4121
83.496094 96.095 59.7416
83.862305 95.996 60.3958
84.228516 95.958 61.2734
84.594727 95.996 62.1936
84.960938 96.106 62.9475
85.327148 96.269 63.3677
85.693359 96.458 63.3727
86.059570 96.646 62.9751
86.425781 96.812 62.2623
86.791992 96.945 61.3650
87.158203 97.045 60.4194
87.524414 97.124 59.5289
87.890625 97.197 58.7343
88.256836 97.282 58.0032
88.623047 97.387 57.2490
88.989258 97.513 56.3687
89.355469 97.651 55.2794
89.721680 97.789 53.9373
90.087891 97.912 52.3395
90.454102 98.008 50.5187
90.820312 98.066 48.5396
91.186523 98.081 46.4922
91.552734 98.053 44.4785
91.918945 97.990 42.5864
92.285156 97.906 40.8611
92.651367 97.815 39.2866
93.017578 97.727 37.7966
93.383789 97.640 36.3121
93.750000 97.546 34.7891
94.116211 97.434 33.2440
94.482422 97.300 31.7450
94.848633 97.146 30.3711
95.214844 96.984 29.1647
95.581055 96.830 28.0970
95.947266 96.690 27.0741
96.313477 96.560 25.9796
96.679688 96.423 24.7397
97.045898 96.259 23.3668
97.412109 96.050 21.9645
97.778320 95.790 20.6914
98.144531 95.489 19.7054
98.510742 95.166 19.1045
98.876953 94.845 18.8971
99.243164 94.542 19.0156
99.609375 94.264 19.3732
99.975586 94.010 19.9174
100.341797 93.777 20.6434
100.708008 93.572 21.5564
101.074219 93.402 22.6282
101.440430 93.273 23.7921
101.806641 93.179 24.9889
102.172852 93.115 26.2104
102.539062 93.082 27.4933
102.905273 93.094 28.8470
103.271484 93.165 30.1820
103.637695 93.301 31.3068
104.003906 93.485 32.0248
104.370117 93.684 32.2487
104.736328 93.865 32.0433
105.102539 94.010 31.5704
105.468750 94.123 30.9900
105.834961 94.215 30.3778
106.201172 94.301 29.7064
106.567383 94.380 28.8959
106.933594 94.438 27.8988
107.299805 94.457 26.7565
107.666016 94.427 25.5951
108.032227 94.350 24.5696
108.398438 94.243 23.7961
108.764648 94.126 23.3049
109.130859 94.017 23.0439
109.497070 93.923 22.9253
109.863281 93.842 22.8823
110.229492 93.768 22.8922
110.595703 93.701 22.9587
110.961914 93.640 23.0789
111.328125 93.586 23.2324
111.694336 93.534 23.4052
112.060547 93.478 23.6238
112.426758 93.416 23.9620
112.792969 93.358 24.5033
113.159180 93.323 25.2753
113.525391 93.332 26.2042
113.891602 93.395 27.1312
114.257812 93.501 27.8936
114.624023 93.631 28.4094
114.990234 93.762 28.7064
115.356445 93.884 28.8815
115.722656 93.998 29.0331
116.088867 94.115 29.2078
116.455078 94.244 29.3887
116.821289 94.391 29.5214
117.187500 94.552 29.5525
117.553711 94.721 29.4545
117.919922 94.893 29.2257
118.286133 95.063 28.8793
118.652344 95.226 28.4338
119.018555 95.380 27.9119
119.384766 95.526 27.3405
119.750977 95.665 26.7465
120.117188 95.800 26.1464
120.483398 95.935 25.5363
120.849609 96.074 24.8940
121.215820 96.216 24.1910
121.582031 96.359 23.4087
121.948242 96.497 22.5459
122.314453 96.629 21.6147
122.680664 96.753 20.6279
123.046875 96.869 19.5907
123.413086 96.978 18.5005
123.779297 97.075 17.3579
124.145508 97.159 16.1750
124.511719 97.227 14.9802
124.877930 97.278 13.8108
125.244141 97.315 12.7052
125.610352 97.343 11.6925
125.976562 97.369 10.7869
126.342773 97.400 9.9818
126.708984 97.445 9.2469
127.075195 97.506 8.5281
127.441406 97.583 7.7590
127.807617 97.670 6.8850
128.173828 97.756 5.8873
128.540039 97.830 4.7948
128.906250 97.888 3.6714
129.272461 97.933 2.5844
129.638672 97.973 1.5685
130.004883 98.018 0.6063
130.371094 98.073 -0.3628
130.737305 98.135 -1.4081
131.103516 98.196 -2.5702
131.469727 98.243 -3.8428
131.835938 98.270 -5.1816
132.202148 98.273 -6.5277
132.568359 98.253 -7.8304
132.934570 98.215 -9.0583
133.300781 98.162 -10.1965
133.666992 98.095 -11.2360
134.033203 98.016 -12.1624
134.399414 97.925 -12.9500
134.765625 97.825 -13.5621
135.131836 97.720 -13.9581
135.498047 97.622 -14.1072
135.864258 97.542 -14.0044
136.230469 97.493 -13.6854
136.596680 97.486 -13.2225
136.962891 97.523 -12.7064
137.329102 97.603 -12.2175
137.695312 97.719 -11.8105
138.061523 97.866 -11.5161
138.427734 98.040 -11.3572
138.793945 98.235 -11.3575
139.160156 98.445 -11.5361
139.526367 98.663 -11.8896
139.892578 98.880 -12.3857
140.258789 99.095 -12.9731
140.625000 99.312 -13.6091
140.991211 99.536 -14.2849
141.357422 99.774 -15.0332
141.723633 100.027 -15.9100
142.089844 100.288 -16.9631
142.456055 100.549 -18.2068
142.822266 100.801 -19.6191
143.188477 101.040 -21.1582
143.554688 101.267 -22.7854
143.920898 101.486 -24.4801
144.287109 101.697 -26.2412
144.653320 101.903 -28.0767
145.019531 102.102 -29.9907
145.385742 102.292 -31.9779
145.751953 102.473 -34.0269
146.118164 102.648 -36.1276
146.484375 102.816 -38.2797
146.850586 102.978 -40.4901
147.216797 103.133 -42.7667
147.583008 103.278 -45.1077
147.949219 103.413 -47.4985
148.315430 103.536 -49.9161
148.681641 103.650 -52.3423
149.047852 103.760 -54.7739
149.414062 103.869 -57.2290
149.780273 103.977 -59.7384
150.146484 104.082 -62.3319
150.512695 104.179 -65.0221
150.878906 104.262 -67.7993
151.245117 104.329 -70.6357
151.611328 104.380 -73.5002
151.977539 104.415 -76.3702
152.343750 104.439 -79.2390
152.709961 104.453 -82.1132
153.076172 104.459 -85.0040
153.442383 104.454 -87.9177
153.808594 104.437 -90.8525
154.174805 104.408 -93.7987
154.541016 104.365 -96.7456
154.907227 104.309 -99.6841
155.273438 104.241 -102.6077
155.639648 104.162 -105.5095
156.005859 104.072 -108.3804
156.372070 103.973 -111.2098
156.738281 103.867 -113.9921
157.104492 103.758 -116.7305
157.470703 103.649 -119.4415
157.836914 103.542 -122.1515
158.203125 103.437 -124.8899
158.569336 103.331 -127.6824
158.935547 103.220 -130.5474
159.301758 103.101 -133.4950
159.667969 102.970 -136.5295
160.034180 102.820 -139.6481
160.400391 102.649 -142.8398
160.766602 102.451 -146.0831
161.132812 102.221 -149.3473
161.499023 101.959 -152.5945
161.865234 101.663 -155.7865
162.231445 101.334 -158.8883
162.597656 100.972 -161.8693
162.963867 100.579 -164.6991
163.330078 100.156 -167.3433
163.696289 99.703 -169.7571
164.062500 99.225 -171.8881
164.428711 98.729 -173.6810
164.794922 98.225 -175.0919
165.161133 97.727 -176.1008
165.527344 97.250 -176.7249
165.893555 96.808 -177.0182
166.259766 96.410 -177.0616
166.625977 96.057 -176.9387
166.992188 95.750 -176.7185
167.358398 95.485 -176.4493
167.724609 95.263 -176.1733
168.090820 95.081 -175.9421
168.457031 94.938 -175.8223
168.823242 94.825 -175.8776
169.189453 94.728 -176.1427
169.555664 94.635 -176.6072
169.921875 94.538 -177.2266
170.288086 94.432 -177.9524
170.654297 94.320 -178.7621
171.020508 94.200 -179.6674
171.386719 94.069 179.3081
171.752930 93.913 178.1636
172.119141 93.719 176.9504
172.485352 93.479 175.7703
172.851562 93.191 174.7504
173.217773 92.862 174.0078
173.583984 92.503 173.6244
173.950195 92.127 173.6453
174.316406 91.743 174.1013
174.682617 91.361 175.0376
175.048828 90.992 176.5228
175.415039 90.658 178.6226
175.781250 90.390 -178.6526
176.147461 90.223 -175.3990
176.513672 90.184 -171.8268
176.879883 90.282 -168.2086
177.246094 90.507 -164.7968
177.612305 90.837 -161.7656
177.978516 91.247 -159.2025
178.344727 91.717 -157.1354
178.710938 92.229 -155.5624
179.077148 92.771 -154.4697
179.443359 93.330 -153.8347
179.809570 93.896 -153.6260
180.175781 94.464 -153.8053
180.541992 95.027 -154.3367
180.908203 95.583 -155.1924
181.274414 96.129 -156.3546
181.640625 96.659 -157.8064
182.006836 97.169 -159.5210
182.373047 97.653 -161.4537
182.739258 98.110 -163.5457
183.105469 98.540 -165.7352
183.471680 98.950 -167.9749
183.837891 99.347 -170.2421
184.204102 99.738 -172.5421
184.570312 100.129 -174.9009
184.936523 100.522 -177.3545
185.302734 100.918 -179.9401
185.668945 101.314 177.3069
186.035156 101.705 174.3558
186.401367 102.086 171.1843
186.767578 102.448 167.7858
187.133789 102.784 164.1740
187.500000 103.084 160.3865
187.866211 103.345 156.4773
188.232422 103.564 152.5074
188.598633 103.744 148.5315
188.964844 103.889 144.5902
189.331055 104.003 140.7065
189.697266 104.091 136.8907
190.063477 104.155 133.1461
190.429688 104.198 129.4773
190.795898 104.221 125.8911
191.162109 104.225 122.3964
191.528320 104.214 118.9985
191.894531 104.190 115.6968
192.260742 104.156 112.4841
192.626953 104.111 109.3514
192.993164 104.057 106.2922
193.359375 103.992 103.3071
193.725586 103.916 100.4037
194.091797 103.830 97.5942
194.458008 103.736 94.8889
194.824219 103.637 92.2926
195.190430 103.535 89.8016
195.556641 103.434 87.4049
195.922852 103.334 85.0868
196.289062 103.237 82.8301
196.655273 103.141 80.6183
197.021484 103.045 78.4385
197.387695 102.948 76.2820
197.753906 102.846 74.1487
198.120117 102.736 72.0477
198.486328 102.617 69.9982
198.852539 102.486 68.0258
199.218750 102.346 66.1582
199.584961 102.198 64.4188
199.951172 102.047 62.8239
200.317383 101.896 61.3811
200.683594 101.748 60.0939
201.049805 101.608 58.9624
201.416016 101.479 57.9854
201.782227 101.366 57.1558
202.148438 101.273 56.4574
202.514648 101.206 55.8599
202.880859 101.168 55.3213
203.247070 101.160 54.7941
203.613281 101.178 54.2356
203.979492 101.219 53.6157
204.345703 101.280 52.9192
204.711914 101.357 52.1404
205.078125 101.447 51.2761
205.444336 101.551 50.3180
205.810547 101.667 49.2524
206.176758 101.791 48.0640
206.542969 101.919 46.7440
206.909180 102.048 45.2942
207.275391 102.174 43.7269
207.641602 102.295 42.0587
208.007812 102.410 40.3043
208.374023 102.520 38.4708
208.740234 102.624 36.5597
209.106445 102.722 34.5691
209.472656 102.811 32.5011
209.838867 102.890 30.3629
210.205078 102.958 28.1675
210.571289 103.013 25.9288
210.937500 103.057 23.6589
211.303711 103.091 21.3634
211.669922 103.115 19.0432
212.036133 103.129 16.6958
212.402344 103.133 14.3187
212.768555 103.125 11.9127
213.134766 103.104 9.4830
213.500977 103.068 7.0404
213.867188 103.017 4.5996
214.233398 102.951 2.1783
214.599609 102.870 -0.2074
214.965820 102.777 -2.5450
215.332031 102.674 -4.8285
215.698242 102.563 -7.0566
216.064453 102.445 -9.2316
216.430664 102.322 -11.3555
216.796875 102.196 -13.4310
217.163086 102.068 -15.4631
217.529297 101.939 -17.4619
217.895508 101.812 -19.4425
218.261719 101.685 -21.4229
218.627930 101.558 -23.4178
218.994141 101.429 -25.4379
219.360352 101.296 -27.4889
219.726562 101.157 -29.5765
220.092773 101.011 -31.7064
220.458984 100.853 -33.8820
220.825195 100.681 -36.0958
221.191406 100.490 -38.3279
221.557617 100.279 -40.5490
221.923828 100.050 -42.7340
222.290039 99.805 -44.8730
222.656250 99.544 -46.9750
223.022461 99.266 -49.0527
223.388672 98.963 -51.1041
223.754883 98.631 -53.0956
224.121094 98.263 -54.9641
224.487305 97.862 -56.6357
224.853516 97.429 -58.0470
225.219727 96.970 -59.1499
225.585938 96.487 -59.8905
225.952148 95.979 -60.1687
226.318359 95.454 -59.8123
226.684570 94.942 -58.6044
227.050781 94.502 -56.3988
227.416992 94.213 -53.3027
227.783203 94.148 -49.7968
228.149414 94.321 -46.6036
228.515625 94.677 -44.3419
228.881836 95.132 -43.2762
229.248047 95.611 -43.3457
229.614258 96.069 -44.3324
229.980469 96.485 -46.0072
230.346680 96.857 -48.1967
230.712891 97.186 -50.7931
231.079102 97.475 -53.7311
231.445312 97.723 -56.9602
231.811523 97.931 -60.4263
232.177734 98.100 -64.0696
232.543945 98.237 -67.8368
232.910156 98.349 -71.6968
233.276367 98.447 -75.6506
233.642578 98.536 -79.7289
234.008789 98.621 -83.9762
234.375000 98.700 -88.4326
234.741211 98.769 -93.1199
235.107422 98.824 -98.0400
235.473633 98.862 -103.1818
235.839844 98.882 -108.5288
236.206055 98.881 -114.0629
236.572266 98.859 -119.7612
236.938477 98.816 -125.5894
237.304688 98.750 -131.4994
237.670898 98.667 -137.4331
238.037109 98.571 -143.3357
238.403320 98.475 -149.1698
238.769531 98.390 -154.9296
239.135742 98.325 -160.6422
239.501953 98.288 -166.3589
239.868164 98.276 -172.1344
240.234375 98.286 -178.0094
240.600586 98.308 176.0018
240.966797 98.331 169.9122
241.333008 98.348 163.7565
241.699219 98.349 157.5850
242.065430 98.328 151.4606
242.431641 98.277 145.4587
242.797852 98.194 139.6689
243.164062 98.078 134.1910
243.530273 97.934 129.1284
243.896484 97.775 124.5710
244.262695 97.616 120.5768
244.628906 97.479 117.1497
244.995117 97.383 114.2319
245.361328 97.345 111.7075
245.727539 97.372 109.4261
246.093750 97.459 107.2327
246.459961 97.598 104.9963
246.826172 97.770 102.6276
247.192383 97.958 100.0853
247.558594 98.143 97.3756
247.924805 98.309 94.5465
248.291016 98.446 91.6765
248.657227 98.550 88.8618
249.023438 98.620 86.1991
249.389648 98.663 83.7711
249.755859 98.692 81.6328
250.122070 98.718 79.8052
250.488281 98.754 78.2748
250.854492 98.808 77.0032
251.220703 98.888 75.9387
251.586914 98.996 75.0298
251.953125 99.132 74.2314
252.319336 99.295 73.5066
252.685547 99.486 72.8219
253.051758 99.702 72.1440
253.417969 99.943 71.4388
253.784180 100.204 70.6748
254.150391 100.481 69.8273
254.516602 100.770 68.8813
254.882812 101.066 67.8309
255.249023 101.366 66.6755
255.615234 101.667 65.4174
255.981445 101.967 64.0591
256.347656 102.263 62.6056
256.713867 102.554 61.0642
257.080078 102.838 59.4453
257.446289 103.116 57.7596
257.812500 103.387 56.0166
258.178711 103.652 54.2200
258.544922 103.914 52.3672
258.911133 104.173 50.4490
259.277344 104.428 48.4525
259.643555 104.679 46.3646
260.009766 104.923 44.1768
260.375977 105.157 41.8871
260.742188 105.378 39.5027
261.108398 105.581 37.0378
261.474609 105.764 34.5135
261.840820 105.927 31.9530
262.207031 106.069 29.3812
262.573242 106.189 26.8220
262.939453 106.290 24.2980
263.305664 106.373 21.8282
263.671875 106.442 19.4281
264.038086 106.498 17.1063
264.404297 106.546 14.8650
264.770508 106.589 12.6989
265.136719 106.630 10.5972
265.502930 106.669 8.5455
265.869141 106.708 6.5282
266.235352 106.748 4.5289
266.601562 106.787 2.5331
266.967773 106.824 0.5277
267.333984 106.859 -1.4951
267.700195 106.888 -3.5369
268.066406 106.909 -5.5920
268.432617 106.922 -7.6490
268.798828 106.926 -9.6942
269.165039 106.923 -11.7155
269.531250 106.913 -13.7053
269.897461 106.899 -15.6621
270.263672 106.883 -17.5889
270.629883 106.866 -19.4933
270.996094 106.851 -21.3875
271.362305 106.837 -23.2892
271.728516 106.826 -25.2211
272.094727 106.815 -27.2084
272.460938 106.802 -29.2731
272.827148 106.783 -31.4294
273.193359 106.751 -33.6799
273.559570 106.702 -36.0166
273.925781 106.633 -38.4232
274.291992 106.539 -40.8790
274.658203 106.419 -43.3600
275.024414 106.271 -45.8401
275.390625 106.094 -48.2906
275.756836 105.889 -50.6842
276.123047 105.658 -52.9979
276.489258 105.404 -55.2196
276.855469 105.128 -57.3500
277.221680 104.833 -59.4003
277.587891 104.515 -61.3844
277.954102 104.170 -63.3080
278.320312 103.793 -65.1584
278.686523 103.376 -66.9014
279.052734 102.913 -68.4795
279.418945 102.400 -69.8181
279.785156 101.836 -70.8262
280.151367 101.223 -71.4004
280.517578 100.566 -71.4229
280.883789 99.874 -70.7607
281.250000 99.166 -69.2695
281.616211 98.470 -66.8120
281.982422 97.828 -63.2949
282.348633 97.297 -58.7354
282.714844 96.936 -53.3303
283.081055 96.791 -47.4825
283.447266 96.874 -41.7239
283.813477 97.158 -36.5551
284.179688 97.586 -32.3046
284.545898 98.098 -29.0898
284.912109 98.638 -26.8646
285.278320 99.169 -25.4924
285.644531 99.666 -24.8042
286.010742 100.115 -24.6318
286.376953 100.512 -24.8240
286.743164 100.856 -25.2522
287.109375 101.153 -25.8123
287.475586 101.407 -26.4246
287.841797 101.628 -27.0336
288.208008 101.822 -27.6057
288.574219 101.997 -28.1239
288.940430 102.158 -28.5822
289.306641 102.310 -28.9783
289.672852 102.457 -29.3118
290.039062 102.601 -29.5834
290.405273 102.748 -29.7990
290.771484 102.900 -29.9713
291.137695 103.059 -30.1205
291.503906 103.227 -30.2681
291.870117 103.403 -30.4315
292.236328 103.585 -30.6185
292.602539 103.772 -30.8273
292.968750 103.964 -31.0494
293.334961 104.162 -31.2795
293.701172 104.370 -31.5209
294.067383 104.589 -31.7897
294.433594 104.821 -32.1106
294.799805 105.065 -32.5103
295.166016 105.318 -33.0067
295.532227 105.576 -33.6058
295.898438 105.837 -34.3020
296.264648 106.100 -35.0861
296.630859 106.366 -35.9524
296.997070 106.634 -36.9028
297.363281 106.904 -37.9460
297.729492 107.177 -39.0903
298.095703 107.450 -40.3405
298.461914 107.721 -41.6954
298.828125 107.991 -43.1526
299.194336 108.259 -44.7123
299.560547 108.526 -46.3832
299.926758 108.791 -48.1805
