* Measurement data measured by REW V5.20.8
* Source: ASIO hdspfire, Analog 1 (1)
* Format: 4M Log Swept Sine, 1 sweep at -12.0 dBFS with no timing reference
* Dated: 13 juin 2022 14:15:50
* REW Settings:
*  C-weighting compensation: Off
*  Target level: 75.0 dB
* Note: ; 
* Measurement: on_0x1400_4_3 juin 13
* Smoothing: None
* Frequency Step: 0.36621094 Hz
* Start Frequency: 0.36621094 Hz
*
* Freq(Hz) SPL(dB) Phase(degrees)
0.366211 -5.609 18.8005
0.732422 -1.294 -9.9014
1.098633 -0.849 -36.2697
1.464844 -3.553 -29.9929
1.831055 2.177 0.3698
2.197266 8.833 -19.4980
2.563477 12.837 -53.4113
2.929688 15.145 -90.7991
3.295898 15.875 -129.8560
3.662109 14.546 -171.5024
4.028320 9.719 130.0705
4.394531 9.872 15.1901
4.760742 15.400 -40.8849
5.126953 14.360 -69.9221
5.493164 11.185 41.6595
5.859375 26.849 36.2874
6.225586 34.173 14.8406
6.591797 38.855 -5.7935
6.958008 42.019 -23.7943
7.324219 44.209 -37.8257
7.690430 45.955 -46.9672
8.056641 47.847 -52.3566
8.422852 50.126 -57.7550
8.789062 52.469 -65.9579
9.155273 54.451 -76.6116
9.521484 55.864 -87.7362
9.887695 56.718 -96.8579
10.253906 57.303 -101.4945
10.620117 58.272 -101.1856
10.986328 60.125 -100.3392
11.352539 62.462 -103.8494
11.718750 64.612 -111.8297
12.084961 66.242 -122.0558
12.451172 67.279 -132.2285
12.817383 67.798 -140.1693
13.183594 68.076 -143.8458
13.549805 68.679 -142.8364
13.916016 70.097 -140.6997
14.282227 72.090 -142.1063
14.648438 74.076 -147.9896
15.014648 75.714 -156.8597
15.380859 76.901 -167.0472
15.747070 77.638 -177.1981
16.113281 77.987 173.8433
16.479492 78.081 167.0934
16.845703 78.149 163.1196
17.211914 78.478 161.2883
17.578125 79.207 159.5663
17.944336 80.187 155.9995
18.310547 81.144 150.1088
18.676758 81.871 142.6005
19.042969 82.281 134.5930
19.409180 82.379 127.2337
19.775391 82.257 121.5179
20.141602 82.095 117.9687
20.507812 82.098 116.1523
20.874023 82.360 114.7001
21.240234 82.779 112.3439
21.606445 83.167 108.8428
21.972656 83.391 104.8444
22.338867 83.428 101.2946
22.705078 83.345 98.9632
23.071289 83.268 98.1149
23.437500 83.304 98.4338
23.803711 83.470 99.3990
24.169922 83.750 100.8080
24.536133 84.163 102.8065
24.902344 84.797 105.3356
25.268555 85.742 107.6237
25.634766 86.974 108.4760
26.000977 88.348 107.1164
26.367188 89.700 103.5256
26.733398 90.913 98.1530
27.099609 91.925 91.5831
27.465820 92.710 84.3965
27.832031 93.268 77.1608
28.198242 93.621 70.4512
28.564453 93.832 64.8225
28.930664 94.010 60.6582
29.296875 94.307 57.8669
29.663086 94.844 55.6581
30.029297 95.632 52.8481
30.395508 96.560 48.5872
30.761719 97.485 42.7344
31.127930 98.300 35.6646
31.494141 98.956 27.9377
31.860352 99.452 20.0938
32.226562 99.817 12.5547
32.592773 100.095 5.5732
32.958984 100.335 -0.7906
33.325195 100.580 -6.6436
33.691406 100.845 -12.1679
34.057617 101.125 -17.5011
34.423828 101.405 -22.6620
34.790039 101.680 -27.5686
35.156250 101.962 -32.1296
35.522461 102.278 -36.3530
35.888672 102.649 -40.3938
36.254883 103.074 -44.4927
36.621094 103.527 -48.8359
36.987305 103.973 -53.4431
37.353516 104.383 -58.1667
37.719727 104.757 -62.7921
38.085938 105.120 -67.1780
38.452148 105.507 -71.3669
38.818359 105.937 -75.5866
39.184570 106.398 -80.1170
39.550781 106.851 -85.1124
39.916992 107.246 -90.5091
40.283203 107.554 -96.0605
40.649414 107.772 -101.4480
41.015625 107.928 -106.4081
41.381836 108.065 -110.8383
41.748047 108.229 -114.8373
42.114258 108.439 -118.6398
42.480469 108.690 -122.4776
42.846680 108.960 -126.4661
43.212891 109.232 -130.5920
43.579102 109.495 -134.7847
43.945312 109.751 -138.9940
44.311523 110.002 -143.2256
44.677734 110.252 -147.5168
45.043945 110.495 -151.8909
45.410156 110.724 -156.3284
45.776367 110.939 -160.7815
46.142578 111.145 -165.2144
46.508789 111.350 -169.6361
46.875000 111.560 -174.1044
47.241211 111.772 -178.6921
47.607422 111.978 176.5537
47.973633 112.166 171.6326
48.339844 112.329 166.5801
48.706055 112.466 161.4348
49.072266 112.580 156.2117
49.438477 112.672 150.8916
49.804688 112.739 145.4369
50.170898 112.773 139.8196
50.537109 112.764 134.0447
50.903320 112.700 128.1570
51.269531 112.576 122.2300
51.635742 112.392 116.3425
52.001953 112.153 110.5540
52.368164 111.869 104.8857
52.734375 111.545 99.3186
53.100586 111.182 93.8098
53.466797 110.773 88.3245
53.833008 110.309 82.8677
54.199219 109.777 77.5011
54.565430 109.172 72.3352
54.931641 108.498 67.4966
55.297852 107.769 63.0828
55.664062 107.003 59.1240
56.030273 106.216 55.5813
56.396484 105.409 52.3911
56.762695 104.579 49.5364
57.128906 103.720 47.0831
57.495117 102.842 45.1405
57.861328 101.972 43.7473
58.227539 101.143 42.7646
58.593750 100.356 41.8943
58.959961 99.573 40.8717
59.326172 98.726 39.6934
59.692383 97.756 38.6997
60.058594 96.650 38.4716
60.424805 95.454 39.5854
60.791016 94.264 42.3030
61.157227 93.168 46.4141
61.523438 92.180 51.5514
61.889648 91.280 57.7793
62.255859 90.520 65.6338
62.622070 90.101 75.1443
62.988281 90.204 84.7781
63.354492 90.734 92.4043
63.720703 91.405 97.2891
64.086914 92.000 100.1183
64.453125 92.456 101.8992
64.819336 92.800 103.3071
65.185547 93.077 104.5828
65.551758 93.306 105.7454
65.917969 93.473 106.8856
66.284180 93.576 108.2971
66.650391 93.652 110.3481
67.016602 93.783 113.1873
67.382812 94.055 116.5154
67.749023 94.497 119.7041
68.115234 95.065 122.2269
68.481445 95.689 123.9489
68.847656 96.324 125.0342
69.213867 96.960 125.6837
69.580078 97.613 125.9597
69.946289 98.287 125.7791
70.312500 98.971 125.0251
70.678711 99.639 123.6582
71.044922 100.264 121.7490
71.411133 100.833 119.4375
71.777344 101.343 116.8716
72.143555 101.800 114.1578
72.509766 102.217 111.3442
72.875977 102.601 108.4277
73.242188 102.953 105.3811
73.608398 103.271 102.1865
73.974609 103.546 98.8588
74.340820 103.773 95.4513
74.707031 103.950 92.0431
75.073242 104.085 88.7114
75.439453 104.186 85.5034
75.805664 104.265 82.4194
76.171875 104.330 79.4199
76.538086 104.380 76.4558
76.904297 104.408 73.5020
77.270508 104.413 70.5750
77.636719 104.393 67.7219
78.002930 104.352 64.9883
78.369141 104.301 62.3850
78.735352 104.246 59.8789
79.101562 104.189 57.4116
79.467773 104.122 54.9370
79.833984 104.037 52.4541
80.200195 103.923 50.0117
80.566406 103.779 47.6884
80.932617 103.612 45.5582
81.298828 103.432 43.6652
81.665039 103.250 42.0110
82.031250 103.078 40.5638
82.397461 102.919 39.2765
82.763672 102.775 38.1033
83.129883 102.646 37.0095
83.496094 102.530 35.9739
83.862305 102.424 34.9860
84.228516 102.327 34.0432
84.594727 102.242 33.1444
84.960938 102.169 32.2797
85.327148 102.112 31.4243
85.693359 102.069 30.5409
86.059570 102.036 29.5936
86.425781 102.005 28.5692
86.791992 101.969 27.4899
87.158203 101.923 26.4115
87.524414 101.869 25.3990
87.890625 101.818 24.4933
88.256836 101.781 23.6815
88.623047 101.768 22.8934
88.989258 101.778 22.0277
89.355469 101.804 20.9985
89.721680 101.828 19.7739
90.087891 101.836 18.3853
90.454102 101.818 16.9089
90.820312 101.771 15.4338
91.186523 101.701 14.0353
91.552734 101.613 12.7617
91.918945 101.516 11.6360
92.285156 101.417 10.6635
92.651367 101.323 9.8368
93.017578 101.240 9.1371
93.383789 101.174 8.5358
93.750000 101.126 8.0021
94.116211 101.098 7.5137
94.482422 101.091 7.0591
94.848633 101.111 6.6221
95.214844 101.162 6.1556
95.581055 101.250 5.5695
95.947266 101.368 4.7460
96.313477 101.500 3.5878
96.679688 101.622 2.0654
97.045898 101.712 0.2352
97.412109 101.754 -1.7782
97.778320 101.744 -3.8243
98.144531 101.691 -5.7717
98.510742 101.607 -7.5393
98.876953 101.508 -9.1044
99.243164 101.407 -10.4869
99.609375 101.309 -11.7214
99.975586 101.219 -12.8372
100.341797 101.141 -13.8578
100.708008 101.079 -14.8145
101.074219 101.038 -15.7572
101.440430 101.015 -16.7471
101.806641 101.004 -17.8351
102.172852 100.997 -19.0416
102.539062 100.987 -20.3550
102.905273 100.969 -21.7493
103.271484 100.944 -23.2100
103.637695 100.910 -24.7448
104.003906 100.865 -26.3717
104.370117 100.800 -28.0920
104.736328 100.706 -29.8676
105.102539 100.579 -31.6208
105.468750 100.420 -33.2610
105.834961 100.239 -34.7222
106.201172 100.048 -35.9906
106.567383 99.858 -37.1017
106.933594 99.669 -38.1062
107.299805 99.477 -39.0276
107.666016 99.278 -39.8408
108.032227 99.071 -40.4899
108.398438 98.868 -40.9294
108.764648 98.680 -41.1613
109.130859 98.517 -41.2418
109.497070 98.383 -41.2543
109.863281 98.272 -41.2668
110.229492 98.177 -41.3092
110.595703 98.090 -41.3757
110.961914 98.007 -41.4430
111.328125 97.928 -41.4846
111.694336 97.854 -41.4740
112.060547 97.786 -41.3846
112.426758 97.732 -41.1975
112.792969 97.699 -40.9172
113.159180 97.696 -40.5857
113.525391 97.729 -40.2769
113.891602 97.792 -40.0723
114.257812 97.878 -40.0294
114.624023 97.974 -40.1643
114.990234 98.071 -40.4541
115.356445 98.165 -40.8556
115.722656 98.255 -41.3248
116.088867 98.343 -41.8326
116.455078 98.434 -42.3710
116.821289 98.531 -42.9524
117.187500 98.636 -43.6006
117.553711 98.747 -44.3378
117.919922 98.860 -45.1735
118.286133 98.973 -46.1017
118.652344 99.084 -47.1096
119.018555 99.195 -48.1906
119.384766 99.307 -49.3533
119.750977 99.419 -50.6174
120.117188 99.528 -51.9987
120.483398 99.630 -53.4933
120.849609 99.720 -55.0762
121.215820 99.798 -56.7144
121.582031 99.871 -58.3903
121.948242 99.941 -60.1172
122.314453 100.010 -61.9382
122.680664 100.074 -63.9032
123.046875 100.123 -66.0406
123.413086 100.145 -68.3383
123.779297 100.131 -70.7428
124.145508 100.078 -73.1783
124.511719 99.985 -75.5709
124.877930 99.859 -77.8683
125.244141 99.708 -80.0486
125.610352 99.536 -82.1134
125.976562 99.346 -84.0723
126.342773 99.138 -85.9286
126.708984 98.912 -87.6758
127.075195 98.669 -89.3038
127.441406 98.411 -90.8107
127.807617 98.137 -92.2045
128.173828 97.845 -93.4915
128.540039 97.528 -94.6537
128.906250 97.178 -95.6296
129.272461 96.794 -96.3125
129.638672 96.383 -96.5739
130.004883 95.963 -96.3044
130.371094 95.560 -95.4575
130.737305 95.202 -94.0737
131.103516 94.911 -92.2686
131.469727 94.696 -90.1901
131.835938 94.559 -87.9709
132.202148 94.495 -85.7045
132.568359 94.499 -83.4501
132.934570 94.571 -81.2566
133.300781 94.709 -79.1846
133.666992 94.912 -77.3168
134.033203 95.174 -75.7461
134.399414 95.481 -74.5494
134.765625 95.815 -73.7618
135.131836 96.162 -73.3691
135.498047 96.508 -73.3226
135.864258 96.848 -73.5667
136.230469 97.178 -74.0563
136.596680 97.497 -74.7589
136.962891 97.803 -75.6432
137.329102 98.094 -76.6699
137.695312 98.372 -77.7977
138.061523 98.642 -79.0002
138.427734 98.911 -80.2828
138.793945 99.182 -81.6818
139.160156 99.451 -83.2417
139.526367 99.713 -84.9856
139.892578 99.956 -86.8962
140.258789 100.175 -88.9200
140.625000 100.369 -90.9894
140.991211 100.544 -93.0491
141.357422 100.706 -95.0745
141.723633 100.864 -97.0750
142.089844 101.023 -99.0815
142.456055 101.183 -101.1306
142.822266 101.341 -103.2495
143.188477 101.494 -105.4497
143.554688 101.640 -107.7284
143.920898 101.777 -110.0751
144.287109 101.903 -112.4784
144.653320 102.019 -114.9307
145.019531 102.125 -117.4272
145.385742 102.219 -119.9613
145.751953 102.302 -122.5208
146.118164 102.374 -125.0886
146.484375 102.439 -127.6506
146.850586 102.500 -130.2057
147.216797 102.560 -132.7715
147.583008 102.621 -135.3789
147.949219 102.682 -138.0583
148.315430 102.737 -140.8254
148.681641 102.783 -143.6770
149.047852 102.818 -146.5985
149.414062 102.842 -149.5784
149.780273 102.853 -152.6166
150.146484 102.853 -155.7227
150.512695 102.838 -158.9042
150.878906 102.803 -162.1544
151.245117 102.744 -165.4485
151.611328 102.660 -168.7491
151.977539 102.551 -172.0184
152.343750 102.420 -175.2277
152.709961 102.270 -178.3596
153.076172 102.105 178.5945
153.442383 101.928 175.6383
153.808594 101.740 172.7732
154.174805 101.544 169.9949
154.541016 101.341 167.2946
154.907227 101.132 164.6627
155.273438 100.915 162.0958
155.639648 100.690 159.6014
156.005859 100.458 157.1946
156.372070 100.220 154.8882
156.738281 99.980 152.6827
157.104492 99.741 150.5635
157.470703 99.503 148.5087
157.836914 99.265 146.5034
158.203125 99.023 144.5488
158.569336 98.776 142.6619
158.935547 98.523 140.8654
159.301758 98.267 139.1783
159.667969 98.010 137.6118
160.034180 97.754 136.1707
160.400391 97.501 134.8607
160.766602 97.254 133.6908
161.132812 97.015 132.6696
161.499023 96.788 131.7999
161.865234 96.578 131.0760
162.231445 96.388 130.4849
162.597656 96.220 130.0139
162.963867 96.075 129.6588
163.330078 95.955 129.4241
163.696289 95.867 129.3186
164.062500 95.817 129.3396
164.428711 95.816 129.4572
164.794922 95.874 129.6023
165.161133 95.997 129.6713
165.527344 96.183 129.5469
165.893555 96.424 129.1246
166.259766 96.707 128.3312
166.625977 97.018 127.1272
166.992188 97.343 125.4989
167.358398 97.670 123.4512
167.724609 97.987 121.0048
168.090820 98.284 118.1979
168.457031 98.550 115.0864
168.823242 98.783 111.7362
169.189453 98.980 108.2118
169.555664 99.143 104.5642
169.921875 99.274 100.8262
170.288086 99.377 97.0143
170.654297 99.451 93.1387
171.020508 99.497 89.2128
171.386719 99.512 85.2570
171.752930 99.498 81.2965
172.119141 99.456 77.3549
172.485352 99.386 73.4489
172.851562 99.292 69.5891
173.217773 99.174 65.7843
173.583984 99.032 62.0468
173.950195 98.866 58.3933
174.316406 98.678 54.8422
174.682617 98.471 51.4075
175.048828 98.246 48.0968
175.415039 98.005 44.9139
175.781250 97.748 41.8652
176.147461 97.477 38.9645
176.513672 97.194 36.2297
176.879883 96.901 33.6757
177.246094 96.604 31.3027
177.612305 96.305 29.0936
177.978516 96.007 27.0226
178.344727 95.705 25.0723
178.710938 95.396 23.2491
179.077148 95.075 21.5869
179.443359 94.742 20.1365
179.809570 94.402 18.9474
180.175781 94.060 18.0537
180.541992 93.726 17.4706
180.908203 93.404 17.2046
181.274414 93.102 17.2673
181.640625 92.826 17.6794
182.006836 92.589 18.4594
182.373047 92.407 19.5962
182.739258 92.299 21.0264
183.105469 92.281 22.6261
183.471680 92.359 24.2332
183.837891 92.529 25.6838
184.204102 92.780 26.8467
184.570312 93.098 27.6324
184.936523 93.468 27.9846
185.302734 93.877 27.8619
185.668945 94.311 27.2288
186.035156 94.755 26.0587
186.401367 95.192 24.3458
186.767578 95.604 22.1157
187.133789 95.973 19.4287
187.500000 96.287 16.3744
187.866211 96.536 13.0591
188.232422 96.718 9.5931
188.598633 96.834 6.0787
188.964844 96.887 2.6036
189.331055 96.885 -0.7623
189.697266 96.834 -3.9664
190.063477 96.743 -6.9709
190.429688 96.620 -9.7502
190.795898 96.472 -12.2892
191.162109 96.306 -14.5808
191.528320 96.127 -16.6240
191.894531 95.942 -18.4216
192.260742 95.754 -19.9773
192.626953 95.570 -21.2964
192.993164 95.394 -22.3865
193.359375 95.232 -23.2614
193.725586 95.088 -23.9419
194.091797 94.969 -24.4572
194.458008 94.877 -24.8438
194.824219 94.817 -25.1475
195.190430 94.789 -25.4215
195.556641 94.792 -25.7250
195.922852 94.821 -26.1136
196.289062 94.869 -26.6294
196.655273 94.926 -27.2910
197.021484 94.982 -28.0909
197.387695 95.031 -28.9994
197.753906 95.066 -29.9722
198.120117 95.085 -30.9575
198.486328 95.088 -31.9026
198.852539 95.077 -32.7572
199.218750 95.060 -33.4806
199.584961 95.045 -34.0491
199.951172 95.040 -34.4642
200.317383 95.054 -34.7543
200.683594 95.094 -34.9680
201.049805 95.161 -35.1615
201.416016 95.253 -35.3851
201.782227 95.367 -35.6766
202.148438 95.497 -36.0597
202.514648 95.641 -36.5468
202.880859 95.792 -37.1393
203.247070 95.947 -37.8276
203.613281 96.104 -38.5933
203.979492 96.263 -39.4155
204.345703 96.425 -40.2812
204.711914 96.593 -41.1932
205.078125 96.770 -42.1711
205.444336 96.957 -43.2445
205.810547 97.150 -44.4418
206.176758 97.346 -45.7831
206.542969 97.540 -47.2786
206.909180 97.728 -48.9325
207.275391 97.905 -50.7458
207.641602 98.067 -52.7145
208.007812 98.208 -54.8237
208.374023 98.321 -57.0433
208.740234 98.402 -59.3278
209.106445 98.451 -61.6223
209.472656 98.470 -63.8746
209.838867 98.462 -66.0448
210.205078 98.435 -68.1104
210.571289 98.392 -70.0647
210.937500 98.338 -71.9102
211.303711 98.277 -73.6509
211.669922 98.210 -75.2902
212.036133 98.140 -76.8334
212.402344 98.069 -78.2909
212.768555 97.999 -79.6788
213.134766 97.929 -81.0146
213.500977 97.859 -82.3099
213.867188 97.785 -83.5653
214.233398 97.707 -84.7721
214.599609 97.623 -85.9170
214.965820 97.535 -86.9890
215.332031 97.444 -87.9791
215.698242 97.349 -88.8770
216.064453 97.251 -89.6654
216.430664 97.152 -90.3208
216.796875 97.058 -90.8204
217.163086 96.975 -91.1548
217.529297 96.911 -91.3347
217.895508 96.873 -91.3900
218.261719 96.866 -91.3600
218.627930 96.893 -91.2860
218.994141 96.956 -91.2125
219.360352 97.058 -91.1951
219.726562 97.198 -91.3031
220.092773 97.372 -91.6089
220.458984 97.571 -92.1672
220.825195 97.782 -92.9993
221.191406 97.997 -94.0953
221.557617 98.209 -95.4314
221.923828 98.415 -96.9901
222.290039 98.614 -98.7687
222.656250 98.800 -100.7720
223.022461 98.969 -102.9974
223.388672 99.113 -105.4247
223.754883 99.230 -108.0199
224.121094 99.319 -110.7516
224.487305 99.380 -113.6056
224.853516 99.414 -116.5895
225.219727 99.417 -119.7218
225.585938 99.384 -123.0128
225.952148 99.304 -126.4524
226.318359 99.171 -130.0082
226.684570 98.977 -133.6375
227.050781 98.718 -137.2996
227.416992 98.387 -140.9565
227.783203 97.973 -144.5603
228.149414 97.464 -148.0267
228.515625 96.848 -151.2114
228.881836 96.118 -153.8998
229.248047 95.279 -155.8226
229.614258 94.358 -156.7036
229.980469 93.398 -156.3367
230.346680 92.458 -154.6637
230.712891 91.585 -151.7883
231.079102 90.811 -147.8787
231.445312 90.153 -143.0248
231.811523 89.642 -137.2279
232.177734 89.342 -130.6027
232.543945 89.321 -123.6345
232.910156 89.592 -117.1381
233.276367 90.087 -111.8434
233.642578 90.694 -108.0432
234.008789 91.317 -105.6165
234.375000 91.897 -104.2467
234.741211 92.406 -103.5941
235.107422 92.840 -103.3667
235.473633 93.203 -103.3312
235.839844 93.510 -103.3103
236.206055 93.782 -103.1873
236.572266 94.039 -102.9141
236.938477 94.304 -102.5123
237.304688 94.587 -102.0515
237.670898 94.892 -101.6072
238.037109 95.216 -101.2244
238.403320 95.556 -100.9059
238.769531 95.913 -100.6318
239.135742 96.293 -100.3936
239.501953 96.705 -100.2203
239.868164 97.157 -100.1824
240.234375 97.648 -100.3727
240.600586 98.174 -100.8809
240.966797 98.724 -101.7739
241.333008 99.286 -103.0917
241.699219 99.847 -104.8484
242.065430 100.397 -107.0387
242.431641 100.925 -109.6411
242.797852 101.420 -112.6210
243.164062 101.878 -115.9352
243.530273 102.293 -119.5378
243.896484 102.663 -123.3850
244.262695 102.986 -127.4385
244.628906 103.262 -131.6663
244.995117 103.491 -136.0420
245.361328 103.671 -140.5436
245.727539 103.802 -145.1515
246.093750 103.883 -149.8474
246.459961 103.910 -154.6125
246.826172 103.881 -159.4241
247.192383 103.792 -164.2498
247.558594 103.637 -169.0444
247.924805 103.415 -173.7458
248.291016 103.121 -178.2761
248.657227 102.760 177.4548
249.023438 102.334 173.5409
249.389648 101.855 170.0687
249.755859 101.337 167.1067
250.122070 100.797 164.6940
250.488281 100.255 162.8333
250.854492 99.730 161.4879
251.220703 99.237 160.5847
251.586914 98.791 160.0188
251.953125 98.398 159.6627
252.319336 98.059 159.3785
252.685547 97.770 159.0337
253.051758 97.517 158.5193
253.417969 97.285 157.7651
253.784180 97.055 156.7450
254.150391 96.813 155.4723
254.516602 96.545 153.9850
254.882812 96.244 152.3291
255.249023 95.905 150.5436
255.615234 95.524 148.6511
255.981445 95.095 146.6570
256.347656 94.609 144.5521
256.713867 94.052 142.3190
257.080078 93.400 139.9410
257.446289 92.618 137.4167
257.812500 91.651 134.7839
258.178711 90.415 132.1704
258.544922 88.772 129.9048
258.911133 86.475 128.8419
259.277344 83.020 131.7064
259.643555 77.516 151.6012
260.009766 76.634 -139.7019
260.375977 82.983 -112.8076
260.742188 87.283 -109.5114
261.108398 90.260 -111.7614
261.474609 92.476 -116.0852
261.840820 94.188 -121.4414
262.207031 95.524 -127.3873
262.573242 96.553 -133.6663
262.939453 97.318 -140.0786
263.305664 97.843 -146.4351
263.671875 98.149 -152.5387
264.038086 98.255 -158.1763
264.404297 98.183 -163.1174
264.770508 97.960 -167.1184
265.136719 97.629 -169.9395
265.502930 97.246 -171.3827
265.869141 96.886 -171.3658
266.235352 96.632 -170.0143
266.601562 96.558 -167.7196
266.967773 96.703 -165.0741
267.333984 97.053 -162.6797
267.700195 97.562 -160.9623
268.066406 98.170 -160.1135
268.432617 98.827 -160.1497
268.798828 99.494 -160.9979
269.165039 100.149 -162.5552
269.531250 100.773 -164.7158
269.897461 101.357 -167.3805
270.263672 101.894 -170.4572
270.629883 102.380 -173.8633
270.996094 102.815 -177.5277
271.362305 103.199 178.6082
271.728516 103.534 174.5898
272.094727 103.821 170.4542
272.460938 104.064 166.2327
272.827148 104.262 161.9536
273.193359 104.420 157.6434
273.559570 104.539 153.3228
273.925781 104.624 149.0028
274.291992 104.678 144.6829
274.658203 104.704 140.3513
275.024414 104.703 135.9910
275.390625 104.672 131.5864
275.756836 104.608 127.1301
276.123047 104.508 122.6234
276.489258 104.368 118.0750
276.855469 104.183 113.4966
277.221680 103.950 108.9021
277.587891 103.663 104.3098
277.954102 103.314 99.7489
278.320312 102.897 95.2675
278.686523 102.402 90.9376
279.052734 101.825 86.8568
279.418945 101.162 83.1443
279.785156 100.414 79.9373
280.151367 99.585 77.3883
280.517578 98.685 75.6694
280.883789 97.730 74.9796
281.250000 96.749 75.5452
281.616211 95.792 77.5912
281.982422 94.937 81.2450
282.348633 94.286 86.3654
282.714844 93.933 92.3950
283.081055 93.913 98.4491
283.447266 94.183 103.6772
283.813477 94.648 107.5856
284.179688 95.211 110.0660
284.545898 95.800 111.2430
284.912109 96.366 111.3274
285.278320 96.880 110.5436
285.644531 97.323 109.1069
286.010742 97.688 107.2180
286.376953 97.972 105.0621
286.743164 98.181 102.8046
287.109375 98.323 100.5852
287.475586 98.413 98.5117
287.841797 98.467 96.6534
288.208008 98.505 95.0378
288.574219 98.542 93.6519
288.940430 98.591 92.4503
289.306641 98.662 91.3706
289.672852 98.757 90.3496
290.039062 98.878 89.3339
290.405273 99.024 88.2817
290.771484 99.195 87.1570
291.137695 99.391 85.9213
291.503906 99.609 84.5327
291.870117 99.846 82.9507
292.236328 100.095 81.1434
292.602539 100.349 79.0945
292.968750 100.602 76.8014
293.334961 100.847 74.2721
293.701172 101.079 71.5211
294.067383 101.292 68.5688
294.433594 101.483 65.4419
294.799805 101.649 62.1732
295.166016 101.787 58.7983
295.532227 101.900 55.3483
295.898438 101.989 51.8439
296.264648 102.054 48.2955
296.630859 102.096 44.7084
296.997070 102.112 41.0924
297.363281 102.102 37.4697
297.729492 102.065 33.8755
298.095703 102.002 30.3488
298.461914 101.919 26.9192
298.828125 101.822 23.5945
299.194336 101.716 20.3564
299.560547 101.605 17.1696
299.926758 101.486 13.9988
