* Measurement data measured by REW V5.20.8
* Source: ASIO hdspfire, Analog 1 (1)
* Format: 4M Log Swept Sine, 1 sweep at -12.0 dBFS with no timing reference
* Dated: 13 juin 2022 13:58:02
* REW Settings:
*  C-weighting compensation: Off
*  Target level: 75.0 dB
* Note: ; 
* Measurement: on_0x1400_0_2 juin 13
* Smoothing: None
* Frequency Step: 0.36621094 Hz
* Start Frequency: 0.36621094 Hz
*
* Freq(Hz) SPL(dB) Phase(degrees)
0.366211 24.756 174.4720
0.732422 19.979 -177.5782
1.098633 17.609 -110.7072
1.464844 24.098 -84.9157
1.831055 27.443 -85.4797
2.197266 28.725 -89.3689
2.563477 28.595 -91.9554
2.929688 27.313 -89.4601
3.295898 25.691 -75.2605
3.662109 26.221 -53.3919
4.028320 28.282 -45.7464
4.394531 29.048 -51.6857
4.760742 26.774 -62.1618
5.126953 15.461 -29.0058
5.493164 29.243 51.9561
5.859375 36.784 34.5781
6.225586 41.164 11.9192
6.591797 44.018 -11.3859
6.958008 45.843 -33.3019
7.324219 46.875 -51.7725
7.690430 47.403 -64.3174
8.056641 48.089 -69.4403
8.422852 49.707 -71.0075
8.789062 52.013 -75.8888
9.155273 54.143 -85.2599
9.521484 55.637 -96.2805
9.887695 56.445 -105.4934
10.253906 56.904 -109.5297
10.620117 57.869 -107.7394
10.986328 59.930 -106.2421
11.352539 62.438 -110.7157
11.718750 64.594 -120.2800
12.084961 66.085 -131.9900
12.451172 66.863 -143.1269
12.817383 67.034 -150.9216
13.183594 67.024 -152.5307
13.549805 67.741 -148.2164
13.916016 69.665 -144.9317
14.282227 72.057 -147.8829
14.648438 74.186 -155.9598
15.014648 75.809 -166.6841
15.380859 76.901 -178.2435
15.747070 77.500 170.6505
16.113281 77.675 161.1209
16.479492 77.557 154.3075
16.845703 77.404 151.0952
17.211914 77.609 150.9750
17.578125 78.416 151.1565
17.944336 79.624 148.6344
18.310547 80.826 142.6749
18.676758 81.734 134.2514
19.042969 82.215 124.7803
19.409180 82.240 115.6954
19.775391 81.860 108.4496
20.141602 81.247 104.3938
20.507812 80.722 104.0312
20.874023 80.597 105.9551
21.240234 80.862 107.7393
21.606445 81.245 108.5510
21.972656 81.588 109.4716
22.338867 82.002 111.6915
22.705078 82.729 114.7958
23.071289 83.819 116.9200
23.437500 85.051 116.9351
23.803711 86.189 115.3981
24.169922 87.195 113.5577
24.536133 88.186 112.2086
24.902344 89.321 111.0776
25.268555 90.645 109.1096
25.634766 92.054 105.4915
26.000977 93.408 100.2208
26.367188 94.623 93.8241
26.733398 95.692 86.8793
27.099609 96.651 79.7363
27.465820 97.541 72.4544
27.832031 98.381 64.9088
28.198242 99.160 56.9796
28.564453 99.852 48.6903
28.930664 100.434 40.2224
29.296875 100.908 31.8318
29.663086 101.297 23.7338
30.029297 101.638 16.0137
30.395508 101.963 8.6058
30.761719 102.286 1.3591
31.127930 102.602 -5.8498
31.494141 102.899 -13.0401
31.860352 103.169 -20.1365
32.226562 103.420 -27.0432
32.592773 103.666 -33.7248
32.958984 103.920 -40.2351
33.325195 104.188 -46.6791
33.691406 104.462 -53.1381
34.057617 104.728 -59.6205
34.423828 104.975 -66.0687
34.790039 105.201 -72.4048
35.156250 105.412 -78.5745
35.522461 105.614 -84.5613
35.888672 105.811 -90.3719
36.254883 106.006 -96.0182
36.621094 106.203 -101.5195
36.987305 106.404 -106.9208
37.353516 106.610 -112.2997
37.719727 106.807 -117.7327
38.085938 106.974 -123.2338
38.452148 107.089 -128.7056
38.818359 107.144 -133.9442
39.184570 107.151 -138.7094
39.550781 107.150 -142.8444
39.916992 107.195 -146.3964
40.283203 107.326 -149.6483
40.649414 107.544 -152.9948
41.015625 107.816 -156.7340
41.381836 108.092 -160.9405
41.748047 108.330 -165.4914
42.114258 108.515 -170.1744
42.480469 108.649 -174.7905
42.846680 108.746 -179.2104
43.212891 108.829 176.6175
43.579102 108.912 172.6877
43.945312 109.005 168.9619
44.311523 109.115 165.3824
44.677734 109.251 161.8753
45.043945 109.413 158.3586
45.410156 109.596 154.7599
45.776367 109.791 151.0345
46.142578 109.991 147.1672
46.508789 110.189 143.1597
46.875000 110.380 139.0162
47.241211 110.558 134.7390
47.607422 110.720 130.3384
47.973633 110.859 125.8427
48.339844 110.973 121.2930
48.706055 111.066 116.7224
49.072266 111.144 112.1298
49.438477 111.209 107.4716
49.804688 111.256 102.6826
50.170898 111.274 97.7185
50.537109 111.244 92.5941
50.903320 111.150 87.3943
51.269531 110.985 82.2545
51.635742 110.750 77.3207
52.001953 110.460 72.7087
52.368164 110.131 68.4781
52.734375 109.781 64.6310
53.100586 109.422 61.1342
53.466797 109.060 57.9499
53.833008 108.702 55.0528
54.199219 108.351 52.4287
54.565430 108.014 50.0625
54.931641 107.699 47.9305
55.297852 107.413 45.9991
55.664062 107.164 44.2217
56.030273 106.963 42.5222
56.396484 106.815 40.7795
56.762695 106.718 38.8373
57.128906 106.656 36.5493
57.495117 106.603 33.8369
57.861328 106.533 30.7165
58.227539 106.428 27.2789
58.593750 106.278 23.6370
58.959961 106.082 19.8746
59.326172 105.841 16.0248
59.692383 105.553 12.0881
60.058594 105.210 8.0765
60.424805 104.798 4.0523
60.791016 104.311 0.1346
61.157227 103.750 -3.5322
61.523438 103.125 -6.8325
61.889648 102.454 -9.7261
62.255859 101.747 -12.2517
62.622070 100.999 -14.4720
62.988281 100.196 -16.3843
63.354492 99.313 -17.8492
63.720703 98.344 -18.5814
64.086914 97.302 -18.2065
64.453125 96.239 -16.3766
64.819336 95.236 -12.9188
65.185547 94.391 -7.9589
65.551758 93.778 -1.9257
65.917969 93.433 4.5847
66.284180 93.348 10.9863
66.650391 93.484 16.8203
67.016602 93.786 21.8127
67.382812 94.199 25.8783
67.749023 94.682 29.0619
68.115234 95.208 31.4420
68.481445 95.763 33.0627
68.847656 96.332 33.9278
69.213867 96.891 34.0468
69.580078 97.415 33.4828
69.946289 97.884 32.3674
70.312500 98.283 30.8801
70.678711 98.613 29.2086
71.044922 98.885 27.5094
71.411133 99.117 25.8793
71.777344 99.328 24.3443
72.143555 99.533 22.8671
72.509766 99.742 21.3715
72.875977 99.954 19.7766
73.242188 100.161 18.0280
73.608398 100.352 16.1177
73.974609 100.519 14.0844
74.340820 100.658 11.9974
74.707031 100.773 9.9265
75.073242 100.874 7.9106
75.439453 100.971 5.9399
75.805664 101.068 3.9639
76.171875 101.166 1.9230
76.538086 101.255 -0.2130
76.904297 101.325 -2.4280
77.270508 101.378 -4.6727
77.636719 101.416 -6.8993
78.002930 101.446 -9.0967
78.369141 101.478 -11.2998
78.735352 101.510 -13.5680
79.101562 101.534 -15.9462
79.467773 101.541 -18.4346
79.833984 101.521 -20.9865
80.200195 101.473 -23.5320
80.566406 101.401 -26.0121
80.932617 101.314 -28.4023
81.298828 101.222 -30.7189
81.665039 101.130 -33.0051
82.031250 101.037 -35.3110
82.397461 100.942 -37.6782
82.763672 100.838 -40.1339
83.129883 100.719 -42.6924
83.496094 100.582 -45.3581
83.862305 100.417 -48.1282
84.228516 100.220 -50.9933
84.594727 99.985 -53.9398
84.960938 99.705 -56.9490
85.327148 99.373 -59.9948
85.693359 98.981 -63.0343
86.059570 98.519 -66.0007
86.425781 97.980 -68.7985
86.791992 97.362 -71.3094
87.158203 96.667 -73.4070
87.524414 95.903 -74.9747
87.890625 95.081 -75.9196
88.256836 94.211 -76.1733
88.623047 93.302 -75.6787
88.989258 92.357 -74.3615
89.355469 91.377 -72.0887
89.721680 90.360 -68.6034
90.087891 89.327 -63.4425
90.454102 88.357 -55.9390
90.820312 87.656 -45.6268
91.186523 87.525 -33.3146
91.552734 88.104 -21.5684
91.918945 89.174 -12.7700
92.285156 90.393 -7.3574
92.651367 91.546 -4.4969
93.017578 92.563 -3.1937
93.383789 93.453 -2.7433
93.750000 94.251 -2.7840
94.116211 94.989 -3.2019
94.482422 95.679 -3.9865
94.848633 96.318 -5.1093
95.214844 96.902 -6.4824
95.581055 97.439 -7.9933
95.947266 97.942 -9.5703
96.313477 98.426 -11.2226
96.679688 98.901 -13.0252
97.045898 99.363 -15.0592
97.412109 99.798 -17.3535
97.778320 100.195 -19.8669
98.144531 100.547 -22.5138
98.510742 100.857 -25.2083
98.876953 101.132 -27.8969
99.243164 101.380 -30.5665
99.609375 101.607 -33.2283
99.975586 101.815 -35.8951
100.341797 102.002 -38.5695
100.708008 102.171 -41.2463
101.074219 102.322 -43.9226
101.440430 102.457 -46.6013
101.806641 102.573 -49.2851
102.172852 102.668 -51.9651
102.539062 102.740 -54.6146
102.905273 102.791 -57.1960
103.271484 102.824 -59.6765
103.637695 102.845 -62.0429
104.003906 102.863 -64.3074
104.370117 102.880 -66.4977
104.736328 102.898 -68.6410
105.102539 102.914 -70.7522
105.468750 102.929 -72.8330
105.834961 102.943 -74.8816
106.201172 102.958 -76.9048
106.567383 102.976 -78.9227
106.933594 102.995 -80.9626
107.299805 103.011 -83.0457
107.666016 103.020 -85.1728
108.032227 103.017 -87.3212
108.398438 103.000 -89.4495
108.764648 102.970 -91.5125
109.130859 102.933 -93.4781
109.497070 102.898 -95.3406
109.863281 102.871 -97.1235
110.229492 102.857 -98.8732
110.595703 102.857 -100.6431
110.961914 102.865 -102.4771
111.328125 102.876 -104.3978
111.694336 102.884 -106.4034
112.060547 102.885 -108.4739
112.426758 102.876 -110.5807
112.792969 102.859 -112.6998
113.159180 102.836 -114.8203
113.525391 102.810 -116.9474
113.891602 102.782 -119.0962
114.257812 102.748 -121.2814
114.624023 102.707 -123.5066
114.990234 102.654 -125.7610
115.356445 102.589 -128.0240
115.722656 102.512 -130.2740
116.088867 102.425 -132.4973
116.455078 102.329 -134.6895
116.821289 102.226 -136.8517
117.187500 102.117 -138.9850
117.553711 102.001 -141.0872
117.919922 101.881 -143.1553
118.286133 101.757 -145.1896
118.652344 101.630 -147.1956
119.018555 101.500 -149.1808
119.384766 101.369 -151.1505
119.750977 101.235 -153.1045
120.117188 101.099 -155.0403
120.483398 100.963 -156.9584
120.849609 100.828 -158.8668
121.215820 100.694 -160.7802
121.582031 100.564 -162.7152
121.948242 100.433 -164.6843
122.314453 100.299 -166.6924
122.680664 100.161 -168.7373
123.046875 100.017 -170.8124
123.413086 99.868 -172.9113
123.779297 99.716 -175.0333
124.145508 99.561 -177.1891
124.511719 99.405 -179.4044
124.877930 99.247 178.2842
125.244141 99.081 175.8412
125.610352 98.899 173.2483
125.976562 98.691 170.5161
126.342773 98.450 167.6852
126.708984 98.170 164.8145
127.075195 97.853 161.9614
127.441406 97.502 159.1656
127.807617 97.121 156.4412
128.173828 96.714 153.7799
128.540039 96.279 151.1643
128.906250 95.814 148.5816
129.272461 95.312 146.0347
129.638672 94.765 143.5488
130.004883 94.165 141.1741
130.371094 93.510 138.9843
130.737305 92.797 137.0673
131.103516 92.031 135.5080
131.469727 91.220 134.3652
131.835938 90.373 133.6603
132.202148 89.490 133.3940
132.568359 88.565 133.5939
132.934570 87.589 134.3669
133.300781 86.561 135.9146
133.666992 85.498 138.4794
134.033203 84.438 142.2377
134.399414 83.424 147.2263
134.765625 82.481 153.4307
135.131836 81.625 161.0238
135.498047 80.925 170.4449
135.864258 80.566 -178.1417
136.230469 80.781 -165.8899
136.596680 81.591 -155.1467
136.962891 82.746 -147.5164
137.329102 83.962 -142.9597
137.695312 85.083 -140.6217
138.061523 86.065 -139.6351
138.427734 86.927 -139.3973
138.793945 87.704 -139.5936
139.160156 88.434 -140.1378
139.526367 89.138 -141.0828
139.892578 89.816 -142.5188
140.258789 90.455 -144.4941
140.625000 91.037 -146.9792
140.991211 91.549 -149.8759
141.357422 91.986 -153.0533
141.723633 92.352 -156.3907
142.089844 92.659 -159.8116
142.456055 92.919 -163.2985
142.822266 93.138 -166.8812
143.188477 93.319 -170.6055
143.554688 93.456 -174.4974
143.920898 93.540 -178.5422
144.287109 93.565 177.3133
144.653320 93.531 173.1382
145.019531 93.446 168.9869
145.385742 93.318 164.8730
145.751953 93.157 160.7611
146.118164 92.968 156.5786
146.484375 92.745 152.2439
146.850586 92.477 147.6964
147.216797 92.150 142.9134
147.583008 91.751 137.9084
147.949219 91.271 132.7120
148.315430 90.705 127.3428
148.681641 90.054 121.7754
149.047852 89.317 115.9149
149.414062 88.489 109.5797
149.780273 87.555 102.4953
150.146484 86.496 94.2836
150.512695 85.292 84.4249
150.878906 83.944 72.1778
151.245117 82.537 56.5235
151.611328 81.331 36.5169
151.977539 80.797 12.7909
152.343750 81.252 -11.0461
152.709961 82.450 -31.1792
153.076172 83.925 -46.7702
153.442383 85.392 -58.8132
153.808594 86.748 -68.4573
154.174805 87.970 -76.5295
154.541016 89.063 -83.5575
154.907227 90.038 -89.8655
155.273438 90.908 -95.6496
155.639648 91.686 -101.0277
156.005859 92.385 -106.0731
156.372070 93.018 -110.8370
156.738281 93.597 -115.3651
157.104492 94.134 -119.7086
157.470703 94.637 -123.9279
157.836914 95.113 -128.0894
158.203125 95.560 -132.2544
158.569336 95.977 -136.4684
158.935547 96.357 -140.7505
159.301758 96.694 -145.0912
159.667969 96.982 -149.4537
160.034180 97.220 -153.7822
160.400391 97.408 -158.0120
160.766602 97.554 -162.0820
161.132812 97.666 -165.9490
161.499023 97.757 -169.5989
161.865234 97.839 -173.0515
162.231445 97.918 -176.3536
162.597656 97.998 -179.5614
162.963867 98.077 177.2815
163.330078 98.153 174.1589
163.696289 98.221 171.0812
164.062500 98.285 168.0715
164.428711 98.348 165.1443
164.794922 98.419 162.2876
165.161133 98.505 159.4583
165.527344 98.607 156.5918
165.893555 98.725 153.6208
166.259766 98.851 150.4919
166.625977 98.979 147.1748
166.992188 99.098 143.6609
167.358398 99.203 139.9578
167.724609 99.286 136.0835
168.090820 99.343 132.0625
168.457031 99.370 127.9249
168.823242 99.363 123.7046
169.189453 99.322 119.4375
169.555664 99.245 115.1597
169.921875 99.135 110.9052
170.288086 98.991 106.7043
170.654297 98.818 102.5837
171.020508 98.617 98.5662
171.386719 98.393 94.6689
171.752930 98.149 90.9033
172.119141 97.890 87.2748
172.485352 97.617 83.7842
172.851562 97.333 80.4310
173.217773 97.041 77.2178
173.583984 96.742 74.1505
173.950195 96.439 71.2368
174.316406 96.136 68.4802
174.682617 95.837 65.8767
175.048828 95.544 63.4141
175.415039 95.259 61.0789
175.781250 94.981 58.8684
176.147461 94.710 56.7986
176.513672 94.447 54.9034
176.879883 94.199 53.2217
177.246094 93.977 51.7749
177.612305 93.795 50.5487
177.978516 93.666 49.4863
178.344727 93.597 48.5017
178.710938 93.591 47.5002
179.077148 93.647 46.3984
179.443359 93.761 45.1262
179.809570 93.928 43.6216
180.175781 94.140 41.8264
180.541992 94.389 39.6929
180.908203 94.662 37.1943
181.274414 94.947 34.3342
181.640625 95.234 31.1416
182.006836 95.514 27.6610
182.373047 95.784 23.9393
182.739258 96.041 20.0193
183.105469 96.283 15.9385
183.471680 96.509 11.7339
183.837891 96.719 7.4418
184.204102 96.914 3.0975
184.570312 97.096 -1.2714
184.936523 97.268 -5.6460
185.302734 97.431 -10.0165
185.668945 97.587 -14.3748
186.035156 97.736 -18.7084
186.401367 97.880 -23.0001
186.767578 98.022 -27.2333
187.133789 98.166 -31.4021
187.500000 98.318 -35.5198
187.866211 98.480 -39.6194
188.232422 98.654 -43.7437
188.598633 98.835 -47.9315
188.964844 99.017 -52.2039
189.331055 99.194 -56.5593
189.697266 99.359 -60.9774
190.063477 99.512 -65.4291
190.429688 99.649 -69.8859
190.795898 99.774 -74.3281
191.162109 99.886 -78.7455
191.528320 99.988 -83.1368
191.894531 100.080 -87.5048
192.260742 100.161 -91.8533
192.626953 100.230 -96.1851
192.993164 100.287 -100.5012
193.359375 100.329 -104.8008
193.725586 100.355 -109.0797
194.091797 100.363 -113.3293
194.458008 100.352 -117.5354
194.824219 100.319 -121.6777
195.190430 100.265 -125.7332
195.556641 100.191 -129.6769
195.922852 100.098 -133.4867
196.289062 99.989 -137.1423
196.655273 99.868 -140.6273
197.021484 99.740 -143.9279
197.387695 99.609 -147.0365
197.753906 99.481 -149.9546
198.120117 99.362 -152.6976
198.486328 99.259 -155.2968
198.852539 99.176 -157.7976
199.218750 99.113 -160.2532
199.584961 99.069 -162.7163
199.951172 99.041 -165.2310
200.317383 99.022 -167.8269
200.683594 99.006 -170.5203
201.049805 98.989 -173.3136
201.416016 98.964 -176.2020
201.782227 98.928 -179.1760
202.148438 98.877 177.7751
202.514648 98.809 174.6650
202.880859 98.721 171.5094
203.247070 98.612 168.3284
203.613281 98.479 165.1436
203.979492 98.325 161.9750
204.345703 98.149 158.8359
204.711914 97.953 155.7338
205.078125 97.737 152.6703
205.444336 97.502 149.6481
205.810547 97.245 146.6716
206.176758 96.969 143.7474
206.542969 96.671 140.8776
206.909180 96.353 138.0554
207.275391 96.014 135.2656
207.641602 95.649 132.4929
208.007812 95.250 129.7329
208.374023 94.809 127.0059
208.740234 94.315 124.3616
209.106445 93.761 121.8801
209.472656 93.143 119.6656
209.838867 92.460 117.8391
210.205078 91.719 116.5267
210.571289 90.932 115.8490
210.937500 90.116 115.9073
211.303711 89.294 116.7736
211.669922 88.490 118.4839
212.036133 87.729 121.0394
212.402344 87.040 124.4058
212.768555 86.452 128.5011
213.134766 85.994 133.1729
213.500977 85.686 138.1819
213.867188 85.536 143.2249
214.233398 85.528 148.0032
214.599609 85.628 152.3070
214.965820 85.796 156.0642
215.332031 85.995 159.3356
215.698242 86.204 162.2660
216.064453 86.418 165.0229
216.430664 86.646 167.7400
216.796875 86.905 170.4810
217.163086 87.218 173.2236
217.529297 87.600 175.8617
217.895508 88.060 178.2235
218.261719 88.589 -179.8832
218.627930 89.163 -178.6067
218.994141 89.749 -177.9934
219.360352 90.318 -177.9753
219.726562 90.852 -178.4098
220.092773 91.350 -179.1543
220.458984 91.820 179.8704
220.825195 92.270 178.6587
221.191406 92.698 177.1614
221.557617 93.092 175.3547
221.923828 93.436 173.2933
222.290039 93.720 171.1035
222.656250 93.949 168.9292
223.022461 94.137 166.8612
223.388672 94.305 164.8983
223.754883 94.459 162.9664
224.121094 94.597 160.9923
224.487305 94.705 158.9727
224.853516 94.774 156.9916
225.219727 94.808 155.1704
225.585938 94.823 153.5895
225.952148 94.841 152.2317
226.318359 94.874 150.9951
226.684570 94.919 149.7692
227.050781 94.963 148.5149
227.416992 94.999 147.2837
227.783203 95.029 146.1586
228.149414 95.071 145.1672
228.515625 95.142 144.2258
228.881836 95.247 143.1666
229.248047 95.372 141.8292
229.614258 95.488 140.1488
229.980469 95.571 138.1774
230.346680 95.604 136.0413
230.712891 95.586 133.8728
231.079102 95.523 131.7595
231.445312 95.423 129.7278
231.811523 95.287 127.7681
232.177734 95.111 125.8789
232.543945 94.884 124.1077
232.910156 94.598 122.5640
233.276367 94.253 121.4067
233.642578 93.861 120.8108
234.008789 93.446 120.9280
234.375000 93.043 121.8453
234.741211 92.696 123.5530
235.107422 92.445 125.9200
235.473633 92.323 128.6948
235.839844 92.342 131.5376
236.206055 92.491 134.1001
236.572266 92.734 136.1194
236.938477 93.024 137.4857
237.304688 93.316 138.2480
237.670898 93.577 138.5704
238.037109 93.792 138.6693
238.403320 93.963 138.7566
238.769531 94.105 138.9961
239.135742 94.241 139.4796
239.501953 94.396 140.2167
239.868164 94.590 141.1442
240.234375 94.838 142.1479
240.600586 95.143 143.0969
240.966797 95.501 143.8762
241.333008 95.901 144.4114
241.699219 96.333 144.6711
242.065430 96.788 144.6523
242.431641 97.264 144.3557
242.797852 97.757 143.7643
243.164062 98.266 142.8405
243.530273 98.784 141.5363
243.896484 99.300 139.8152
244.262695 99.802 137.6675
244.628906 100.274 135.1166
244.995117 100.706 132.2122
245.361328 101.091 129.0193
245.727539 101.423 125.6057
246.093750 101.702 122.0347
246.459961 101.929 118.3588
246.826172 102.104 114.6213
247.192383 102.229 110.8567
247.558594 102.307 107.0950
247.924805 102.337 103.3639
248.291016 102.322 99.6930
248.657227 102.263 96.1132
249.023438 102.160 92.6578
249.389648 102.016 89.3604
249.755859 101.834 86.2543
250.122070 101.616 83.3721
250.488281 101.367 80.7471
250.854492 101.089 78.4137
251.220703 100.788 76.4087
251.586914 100.468 74.7708
251.953125 100.137 73.5414
252.319336 99.803 72.7625
252.685547 99.477 72.4758
253.051758 99.175 72.7144
253.417969 98.918 73.4885
253.784180 98.727 74.7637
254.150391 98.629 76.4402
254.516602 98.641 78.3500
254.882812 98.773 80.2795
255.249023 99.021 82.0103
255.615234 99.372 83.3577
255.981445 99.806 84.1875
256.347656 100.303 84.4124
256.713867 100.840 83.9824
257.080078 101.400 82.8763
257.446289 101.962 81.0975
257.812500 102.511 78.6694
258.178711 103.033 75.6305
258.544922 103.516 72.0271
258.911133 103.951 67.9072
259.277344 104.332 63.3168
259.643555 104.652 58.2980
260.009766 104.905 52.8888
260.375977 105.087 47.1245
260.742188 105.192 41.0370
261.108398 105.212 34.6567
261.474609 105.141 28.0134
261.840820 104.972 21.1395
262.207031 104.694 14.0710
262.573242 104.298 6.8523
262.939453 103.772 -0.4639
263.305664 103.105 -7.8146
263.671875 102.281 -15.1296
264.038086 101.288 -22.3334
264.404297 100.106 -29.3514
264.770508 98.711 -36.1155
265.136719 97.068 -42.5721
265.502930 95.118 -48.6893
265.869141 92.752 -54.4678
266.235352 89.756 -59.9626
266.601562 85.619 -65.3813
266.967773 78.570 -71.8734
267.333984 62.226 133.7440
267.700195 79.885 107.6050
268.066406 84.960 102.9266
268.432617 87.886 99.5288
268.798828 89.900 96.7124
269.165039 91.420 94.2936
269.531250 92.641 92.1750
269.897461 93.670 90.2799
270.263672 94.575 88.5317
270.629883 95.398 86.8492
270.996094 96.165 85.1461
271.362305 96.893 83.3386
271.728516 97.587 81.3578
272.094727 98.250 79.1566
272.460938 98.879 76.7118
272.827148 99.473 74.0172
273.193359 100.029 71.0741
273.559570 100.545 67.8846
273.925781 101.017 64.4504
274.291992 101.442 60.7771
274.658203 101.812 56.8810
275.024414 102.121 52.7939
275.390625 102.363 48.5652
275.756836 102.534 44.2584
276.123047 102.631 39.9480
276.489258 102.653 35.7123
276.855469 102.604 31.6304
277.221680 102.489 27.7769
277.587891 102.314 24.2201
277.954102 102.088 21.0189
278.320312 101.821 18.2225
278.686523 101.525 15.8683
279.052734 101.210 13.9822
279.418945 100.891 12.5771
279.785156 100.581 11.6510
280.151367 100.293 11.1830
280.517578 100.041 11.1301
280.883789 99.836 11.4270
281.250000 99.688 11.9923
281.616211 99.600 12.7378
281.982422 99.573 13.5787
282.348633 99.608 14.4368
282.714844 99.701 15.2394
283.081055 99.848 15.9167
283.447266 100.043 16.4060
283.813477 100.277 16.6580
284.179688 100.540 16.6450
284.545898 100.821 16.3618
284.912109 101.112 15.8190
285.278320 101.408 15.0356
285.644531 101.703 14.0325
286.010742 101.993 12.8314
286.376953 102.276 11.4563
286.743164 102.549 9.9344
287.109375 102.810 8.2936
287.475586 103.062 6.5590
287.841797 103.304 4.7485
288.208008 103.538 2.8743
288.574219 103.765 0.9435
288.940430 103.985 -1.0360
289.306641 104.201 -3.0557
289.672852 104.413 -5.1056
290.039062 104.624 -7.1801
290.405273 104.837 -9.2797
290.771484 105.055 -11.4152
291.137695 105.282 -13.6061
291.503906 105.517 -15.8794
291.870117 105.762 -18.2645
292.236328 106.015 -20.7900
292.602539 106.273 -23.4777
292.968750 106.533 -26.3423
293.334961 106.791 -29.3917
293.701172 107.046 -32.6312
294.067383 107.294 -36.0675
294.433594 107.533 -39.7107
294.799805 107.759 -43.5715
295.166016 107.968 -47.6565
295.532227 108.153 -51.9618
295.898438 108.310 -56.4712
296.264648 108.432 -61.1573
296.630859 108.519 -65.9872
296.997070 108.566 -70.9274
297.363281 108.576 -75.9490
297.729492 108.548 -81.0284
298.095703 108.482 -86.1470
298.461914 108.380 -91.2888
298.828125 108.241 -96.4407
299.194336 108.067 -101.5911
299.560547 107.859 -106.7322
299.926758 107.616 -111.8591
