* Measurement data measured by REW V5.20.8
* Source: ASIO hdspfire, Analog 1 (1)
* Format: 4M Log Swept Sine, 1 sweep at -12.0 dBFS with no timing reference
* Dated: 13 juin 2022 14:09:03
* REW Settings:
*  C-weighting compensation: Off
*  Target level: 75.0 dB
* Note: ; 
* Measurement: on_0x1400_0_3 juin 13
* Smoothing: None
* Frequency Step: 0.36621094 Hz
* Start Frequency: 0.36621094 Hz
*
* Freq(Hz) SPL(dB) Phase(degrees)
0.366211 18.229 169.7350
0.732422 8.349 178.0560
1.098633 13.038 -60.0270
1.464844 18.790 -57.1009
1.831055 19.602 -48.1788
2.197266 20.660 -16.8890
2.563477 25.378 6.1594
2.929688 29.630 9.0856
3.295898 32.384 3.8236
3.662109 33.742 -5.0917
4.028320 33.524 -16.2607
4.394531 30.646 -28.0752
4.760742 17.270 -12.0034
5.126953 31.337 101.1919
5.493164 38.893 84.7938
5.859375 42.963 63.5009
6.225586 45.403 40.0807
6.591797 46.793 15.5031
6.958008 47.432 -9.0122
7.324219 47.526 -31.2966
7.690430 47.335 -47.9623
8.056641 47.514 -55.8528
8.422852 49.026 -58.1558
8.789062 51.619 -63.5858
9.155273 54.161 -73.9795
9.521484 56.076 -86.2032
9.887695 57.288 -96.9501
10.253906 58.043 -103.3474
10.620117 58.970 -104.2480
10.986328 60.695 -103.3526
11.352539 62.964 -106.1622
11.718750 65.080 -113.5090
12.084961 66.660 -123.1917
12.451172 67.621 -132.6787
12.817383 68.072 -139.5413
13.183594 68.380 -141.7483
13.549805 69.184 -139.7301
13.916016 70.827 -138.0186
14.282227 72.892 -140.5170
14.648438 74.840 -147.1199
15.014648 76.430 -156.1546
15.380859 77.617 -166.1608
15.747070 78.429 -176.1113
16.113281 78.922 174.7530
16.479492 79.173 167.0681
16.845703 79.299 161.3533
17.211914 79.475 157.7574
17.578125 79.889 155.5942
17.944336 80.617 153.3208
18.310547 81.537 149.5077
18.676758 82.427 143.7721
19.042969 83.109 136.7034
19.409180 83.500 129.3576
19.775391 83.619 122.8916
20.141602 83.590 118.2379
20.507812 83.625 115.5683
20.874023 83.900 113.8608
21.240234 84.392 111.5449
21.606445 84.911 107.8726
21.972656 85.269 103.3192
22.338867 85.402 99.0043
22.705078 85.380 96.0089
23.071289 85.381 94.7467
23.437500 85.573 94.5652
23.803711 85.958 94.2651
24.169922 86.411 93.2621
24.536133 86.821 91.9594
24.902344 87.195 91.1267
25.268555 87.648 91.0805
25.634766 88.289 91.2959
26.000977 89.114 90.8716
26.367188 90.022 89.3644
26.733398 90.929 86.9746
27.099609 91.821 84.0918
27.465820 92.734 80.8368
27.832031 93.691 76.9698
28.198242 94.663 72.1641
28.564453 95.583 66.3325
28.930664 96.389 59.7118
29.296875 97.055 52.7278
29.663086 97.593 45.8026
30.029297 98.048 39.2012
30.395508 98.470 32.9581
30.761719 98.893 26.9194
31.127930 99.320 20.8886
31.494141 99.735 14.7734
31.860352 100.125 8.6276
32.226562 100.489 2.5792
32.592773 100.838 -3.2816
32.958984 101.191 -8.9733
33.325195 101.563 -14.6070
33.691406 101.947 -20.3020
34.057617 102.325 -26.1026
34.423828 102.680 -31.9576
34.790039 103.004 -37.7609
35.156250 103.301 -43.4106
35.522461 103.580 -48.8473
35.888672 103.851 -54.0595
36.254883 104.125 -59.0702
36.621094 104.406 -63.9275
36.987305 104.699 -68.7053
37.353516 104.999 -73.4965
37.719727 105.292 -78.3782
38.085938 105.555 -83.3560
38.452148 105.767 -88.3241
38.818359 105.918 -93.0746
39.184570 106.023 -97.3697
39.550781 106.124 -101.0611
39.916992 106.272 -104.2096
40.283203 106.507 -107.1100
40.649414 106.825 -110.1580
41.015625 107.190 -113.6359
41.381836 107.550 -117.5894
41.748047 107.865 -121.8612
42.114258 108.123 -126.2093
42.480469 108.332 -130.4215
42.846680 108.515 -134.3833
43.212891 108.700 -138.0890
43.579102 108.898 -141.6048
43.945312 109.117 -145.0152
44.311523 109.353 -148.3844
44.677734 109.607 -151.7502
45.043945 109.880 -155.1389
45.410156 110.172 -158.5831
45.776367 110.484 -162.1295
46.142578 110.812 -165.8353
46.508789 111.150 -169.7560
46.875000 111.487 -173.9282
47.241211 111.811 -178.3543
47.607422 112.111 177.0043
47.973633 112.379 172.2156
48.339844 112.617 167.3489
48.706055 112.834 162.4402
49.072266 113.037 157.4680
49.438477 113.230 152.3594
49.804688 113.406 147.0269
50.170898 113.550 141.4194
50.537109 113.640 135.5555
50.903320 113.661 129.5229
51.269531 113.604 123.4492
51.635742 113.473 117.4608
52.001953 113.275 111.6478
52.368164 113.025 106.0485
52.734375 112.729 100.6606
53.100586 112.391 95.4696
53.466797 112.012 90.4788
53.833008 111.589 85.7193
54.199219 111.127 81.2379
54.565430 110.632 77.0745
54.931641 110.111 73.2480
55.297852 109.572 69.7658
55.664062 109.019 66.6446
56.030273 108.460 63.9220
56.396484 107.912 61.6316
56.762695 107.397 59.7482
57.128906 106.937 58.1428
57.495117 106.540 56.6007
57.861328 106.192 54.9129
58.227539 105.866 52.9745
58.593750 105.534 50.8131
58.959961 105.178 48.5344
59.326172 104.798 46.2342
59.692383 104.397 43.9391
60.058594 103.976 41.6139
60.424805 103.524 39.2269
60.791016 103.022 36.8227
61.157227 102.453 34.5459
61.523438 101.817 32.5990
61.889648 101.132 31.1566
62.255859 100.424 30.2820
62.622070 99.720 29.9038
62.988281 99.023 29.8908
63.354492 98.318 30.1845
63.720703 97.585 30.8925
64.086914 96.820 32.2739
64.453125 96.052 34.6215
64.819336 95.342 38.0989
65.185547 94.763 42.6132
65.551758 94.375 47.8112
65.917969 94.199 53.2081
66.284180 94.224 58.3372
66.650391 94.412 62.8369
67.016602 94.712 66.4933
67.382812 95.066 69.2722
67.749023 95.428 71.3074
68.115234 95.775 72.8274
68.481445 96.108 74.0504
68.847656 96.444 75.0899
69.213867 96.804 75.9174
69.580078 97.195 76.3998
69.946289 97.604 76.3914
70.312500 98.003 75.8246
70.678711 98.360 74.7485
71.044922 98.652 73.3166
71.411133 98.869 71.7415
71.777344 99.018 70.2405
72.143555 99.120 68.9788
72.509766 99.206 68.0200
72.875977 99.306 67.3056
73.242188 99.434 66.6852
73.608398 99.590 65.9966
73.974609 99.759 65.1469
74.340820 99.921 64.1454
74.707031 100.070 63.0732
75.073242 100.209 62.0165
75.439453 100.349 61.0081
75.805664 100.502 60.0074
76.171875 100.671 58.9319
76.538086 100.847 57.7128
76.904297 101.018 56.3367
77.270508 101.178 54.8444
77.636719 101.328 53.2934
78.002930 101.472 51.7137
78.369141 101.619 50.0854
78.735352 101.771 48.3539
79.101562 101.920 46.4699
79.467773 102.056 44.4267
79.833984 102.168 42.2696
80.200195 102.253 40.0738
80.566406 102.316 37.9069
80.932617 102.368 35.7985
81.298828 102.418 33.7314
81.665039 102.471 31.6585
82.031250 102.527 29.5302
82.397461 102.582 27.3146
82.763672 102.632 25.0007
83.129883 102.673 22.5878
83.496094 102.703 20.0746
83.862305 102.721 17.4563
84.228516 102.722 14.7286
84.594727 102.704 11.8904
84.960938 102.665 8.9430
85.327148 102.601 5.8868
85.693359 102.507 2.7236
86.059570 102.377 -0.5344
86.425781 102.204 -3.8531
86.791992 101.984 -7.1743
87.158203 101.717 -10.4276
87.524414 101.410 -13.5553
87.890625 101.071 -16.5364
88.256836 100.707 -19.3932
88.623047 100.321 -22.1748
88.989258 99.909 -24.9254
89.355469 99.463 -27.6617
89.721680 98.973 -30.3711
90.087891 98.431 -33.0269
90.454102 97.831 -35.5999
90.820312 97.160 -38.0476
91.186523 96.405 -40.2864
91.552734 95.555 -42.1674
91.918945 94.605 -43.4868
92.285156 93.568 -44.0431
92.651367 92.465 -43.7133
93.017578 91.308 -42.4736
93.383789 90.083 -40.2798
93.750000 88.749 -36.8011
94.116211 87.290 -31.1473
94.482422 85.821 -21.8790
94.848633 84.718 -8.0143
95.214844 84.494 8.6139
95.581055 85.210 23.6530
95.947266 86.424 34.7800
96.313477 87.776 42.4155
96.679688 89.124 47.4996
97.045898 90.423 50.6272
97.412109 91.642 52.1685
97.778320 92.753 52.4601
98.144531 93.744 51.8408
98.510742 94.618 50.6063
98.876953 95.389 48.9695
99.243164 96.070 47.0602
99.609375 96.674 44.9559
99.975586 97.209 42.7148
100.341797 97.682 40.3936
100.708008 98.100 38.0432
101.074219 98.474 35.6961
101.440430 98.812 33.3594
101.806641 99.119 31.0219
102.172852 99.396 28.6707
102.539062 99.645 26.3055
102.905273 99.864 23.9425
103.271484 100.055 21.6062
103.637695 100.220 19.3178
104.003906 100.364 17.0861
104.370117 100.493 14.9064
104.736328 100.607 12.7654
105.102539 100.708 10.6511
105.468750 100.795 8.5588
105.834961 100.866 6.4952
106.201172 100.923 4.4741
106.567383 100.965 2.5088
106.933594 100.998 0.6030
107.299805 101.023 -1.2538
107.666016 101.041 -3.0821
108.032227 101.050 -4.8989
108.398438 101.045 -6.7018
108.764648 101.022 -8.4607
109.130859 100.980 -10.1237
109.497070 100.923 -11.6351
109.863281 100.861 -12.9607
110.229492 100.804 -14.1039
110.595703 100.763 -15.1072
110.961914 100.740 -16.0349
111.328125 100.735 -16.9474
111.694336 100.743 -17.8826
112.060547 100.761 -18.8521
112.426758 100.783 -19.8524
112.792969 100.810 -20.8785
113.159180 100.841 -21.9329
113.525391 100.876 -23.0228
113.891602 100.911 -24.1532
114.257812 100.945 -25.3198
114.624023 100.975 -26.5087
114.990234 101.002 -27.7039
115.356445 101.028 -28.8974
115.722656 101.054 -30.0944
116.088867 101.081 -31.3099
116.455078 101.107 -32.5585
116.821289 101.129 -33.8430
117.187500 101.144 -35.1486
117.553711 101.150 -36.4475
117.919922 101.149 -37.7102
118.286133 101.144 -38.9166
118.652344 101.141 -40.0638
119.018555 101.142 -41.1649
119.384766 101.152 -42.2433
119.750977 101.172 -43.3263
120.117188 101.201 -44.4392
120.483398 101.237 -45.6038
120.849609 101.277 -46.8356
121.215820 101.319 -48.1429
121.582031 101.359 -49.5248
121.948242 101.394 -50.9711
122.314453 101.422 -52.4657
122.680664 101.442 -53.9906
123.046875 101.455 -55.5308
123.413086 101.463 -57.0767
123.779297 101.467 -58.6255
124.145508 101.469 -60.1818
124.511719 101.470 -61.7560
124.877930 101.470 -63.3624
125.244141 101.469 -65.0152
125.610352 101.462 -66.7233
125.976562 101.449 -68.4860
126.342773 101.425 -70.2931
126.708984 101.389 -72.1278
127.075195 101.341 -73.9731
127.441406 101.282 -75.8170
127.807617 101.214 -77.6542
128.173828 101.135 -79.4850
128.540039 101.048 -81.3113
128.906250 100.950 -83.1340
129.272461 100.840 -84.9504
129.638672 100.716 -86.7524
130.004883 100.577 -88.5240
130.371094 100.422 -90.2395
130.737305 100.250 -91.8661
131.103516 100.066 -93.3710
131.469727 99.876 -94.7341
131.835938 99.686 -95.9581
132.202148 99.503 -97.0698
132.568359 99.327 -98.1085
132.934570 99.158 -99.1064
133.300781 98.992 -100.0749
133.666992 98.826 -101.0034
134.033203 98.661 -101.8749
134.399414 98.498 -102.6833
134.765625 98.342 -103.4420
135.131836 98.190 -104.1748
135.498047 98.039 -104.8949
135.864258 97.884 -105.5876
136.230469 97.722 -106.2091
136.596680 97.555 -106.7031
136.962891 97.391 -107.0256
137.329102 97.238 -107.1635
137.695312 97.109 -107.1359
138.061523 97.008 -106.9821
138.427734 96.942 -106.7469
138.793945 96.913 -106.4760
139.160156 96.923 -106.2204
139.526367 96.973 -106.0405
139.892578 97.060 -105.9978
140.258789 97.176 -106.1376
140.625000 97.314 -106.4785
140.991211 97.467 -107.0176
141.357422 97.634 -107.7501
141.723633 97.812 -108.6846
142.089844 97.999 -109.8433
142.456055 98.188 -111.2428
142.822266 98.371 -112.8742
143.188477 98.542 -114.6993
143.554688 98.701 -116.6682
143.920898 98.853 -118.7482
144.287109 99.003 -120.9441
144.653320 99.155 -123.2952
145.019531 99.306 -125.8503
145.385742 99.450 -128.6373
145.751953 99.576 -131.6489
146.118164 99.681 -134.8512
146.484375 99.761 -138.2039
146.850586 99.817 -141.6772
147.216797 99.850 -145.2547
147.583008 99.861 -148.9226
147.949219 99.848 -152.6593
148.315430 99.814 -156.4359
148.681641 99.764 -160.2294
149.047852 99.706 -164.0413
149.414062 99.644 -167.9042
149.780273 99.580 -171.8689
150.146484 99.510 -175.9767
150.512695 99.425 179.7663
150.878906 99.321 175.3945
151.245117 99.196 170.9667
151.611328 99.056 166.5389
151.977539 98.910 162.1389
152.343750 98.770 157.7568
152.709961 98.642 153.3546
153.076172 98.533 148.8856
153.442383 98.440 144.3121
153.808594 98.364 139.6123
154.174805 98.303 134.7769
154.541016 98.257 129.8038
154.907227 98.225 124.6944
155.273438 98.209 119.4534
155.639648 98.206 114.0908
156.005859 98.218 108.6209
156.372070 98.243 103.0622
156.738281 98.281 97.4353
157.104492 98.333 91.7636
157.470703 98.398 86.0728
157.836914 98.476 80.3885
158.203125 98.569 74.7325
158.569336 98.677 69.1187
158.935547 98.799 63.5527
159.301758 98.934 58.0378
159.667969 99.080 52.5806
160.034180 99.232 47.1960
160.400391 99.390 41.9044
160.766602 99.552 36.7238
161.132812 99.720 31.6613
161.499023 99.894 26.7103
161.865234 100.073 21.8570
162.231445 100.255 17.0901
162.597656 100.436 12.4119
162.963867 100.613 7.8385
163.330078 100.788 3.3920
163.696289 100.963 -0.9129
164.062500 101.144 -5.0815
164.428711 101.335 -9.1413
164.794922 101.538 -13.1357
165.161133 101.753 -17.1111
165.527344 101.975 -21.1044
165.893555 102.201 -25.1388
166.259766 102.426 -29.2271
166.625977 102.647 -33.3776
166.992188 102.860 -37.5997
167.358398 103.062 -41.9026
167.724609 103.249 -46.2912
168.090820 103.415 -50.7601
168.457031 103.555 -55.2913
168.823242 103.666 -59.8578
169.189453 103.746 -64.4304
169.555664 103.796 -68.9846
169.921875 103.817 -73.5046
170.288086 103.808 -77.9811
170.654297 103.769 -82.4040
171.020508 103.699 -86.7557
171.386719 103.596 -91.0073
171.752930 103.461 -95.1224
172.119141 103.297 -99.0651
172.485352 103.109 -102.8108
172.851562 102.904 -106.3511
173.217773 102.686 -109.6926
173.583984 102.458 -112.8472
173.950195 102.221 -115.8218
174.316406 101.974 -118.6110
174.682617 101.720 -121.1992
175.048828 101.461 -123.5695
175.415039 101.204 -125.7145
175.781250 100.953 -127.6409
176.147461 100.712 -129.3682
176.513672 100.485 -130.9189
176.879883 100.272 -132.3103
177.246094 100.073 -133.5494
177.612305 99.888 -134.6348
177.978516 99.721 -135.5619
178.344727 99.575 -136.3273
178.710938 99.455 -136.9324
179.077148 99.366 -137.3876
179.443359 99.317 -137.7175
179.809570 99.313 -137.9685
180.175781 99.360 -138.2090
180.541992 99.457 -138.5214
180.908203 99.602 -138.9836
181.274414 99.785 -139.6511
181.640625 99.996 -140.5494
182.006836 100.229 -141.6809
182.373047 100.477 -143.0381
182.739258 100.737 -144.6155
183.105469 101.007 -146.4126
183.471680 101.281 -148.4285
183.837891 101.556 -150.6545
184.204102 101.828 -153.0737
184.570312 102.097 -155.6658
184.936523 102.363 -158.4165
185.302734 102.626 -161.3243
185.668945 102.887 -164.3984
186.035156 103.143 -167.6506
186.401367 103.391 -171.0859
186.767578 103.628 -174.6976
187.133789 103.851 -178.4695
187.500000 104.058 177.6163
187.866211 104.248 173.5742
188.232422 104.423 169.4106
188.598633 104.581 165.1295
188.964844 104.720 160.7361
189.331055 104.838 156.2427
189.697266 104.933 151.6697
190.063477 105.005 147.0413
190.429688 105.056 142.3804
190.795898 105.086 137.7036
191.162109 105.097 133.0197
191.528320 105.092 128.3315
191.894531 105.070 123.6414
192.260742 105.031 118.9539
192.626953 104.975 114.2788
192.993164 104.902 109.6294
193.359375 104.812 105.0188
193.725586 104.708 100.4573
194.091797 104.591 95.9524
194.458008 104.460 91.5101
194.824219 104.318 87.1383
195.190430 104.163 82.8496
195.556641 103.998 78.6609
195.922852 103.824 74.5894
196.289062 103.644 70.6487
196.655273 103.464 66.8440
197.021484 103.286 63.1725
197.387695 103.115 59.6262
197.753906 102.951 56.1958
198.120117 102.798 52.8722
198.486328 102.658 49.6447
198.852539 102.534 46.4961
199.218750 102.428 43.4011
199.584961 102.341 40.3273
199.951172 102.272 37.2411
200.317383 102.217 34.1154
200.683594 102.174 30.9327
201.049805 102.138 27.6863
201.416016 102.107 24.3746
201.782227 102.076 20.9980
202.148438 102.045 17.5565
202.514648 102.010 14.0492
202.880859 101.970 10.4769
203.247070 101.922 6.8438
203.613281 101.861 3.1587
203.979492 101.786 -0.5648
204.345703 101.695 -4.3091
204.711914 101.586 -8.0555
205.078125 101.459 -11.7870
205.444336 101.315 -15.4911
205.810547 101.154 -19.1617
206.176758 100.976 -22.7975
206.542969 100.778 -26.3982
206.909180 100.560 -29.9600
207.275391 100.318 -33.4727
207.641602 100.050 -36.9193
208.007812 99.753 -40.2771
208.374023 99.426 -43.5188
208.740234 99.066 -46.6113
209.106445 98.671 -49.5117
209.472656 98.241 -52.1646
209.838867 97.778 -54.5023
210.205078 97.287 -56.4519
210.571289 96.777 -57.9447
210.937500 96.263 -58.9307
211.303711 95.762 -59.3879
211.669922 95.291 -59.3285
212.036133 94.867 -58.8004
212.402344 94.503 -57.8851
212.768555 94.211 -56.6919
213.134766 93.993 -55.3441
213.500977 93.848 -53.9613
213.867188 93.767 -52.6416
214.233398 93.739 -51.4512
214.599609 93.751 -50.4258
214.965820 93.794 -49.5757
215.332031 93.856 -48.8884
215.698242 93.929 -48.3314
216.064453 94.007 -47.8542
216.430664 94.090 -47.3981
216.796875 94.182 -46.9095
217.163086 94.290 -46.3558
217.529297 94.426 -45.7358
217.895508 94.598 -45.0831
218.261719 94.815 -44.4625
218.627930 95.078 -43.9586
218.994141 95.385 -43.6567
219.360352 95.728 -43.6263
219.726562 96.097 -43.9099
220.092773 96.482 -44.5242
220.458984 96.875 -45.4727
220.825195 97.269 -46.7563
221.191406 97.657 -48.3759
221.557617 98.028 -50.3230
221.923828 98.375 -52.5712
222.290039 98.691 -55.0726
222.656250 98.970 -57.7687
223.022461 99.214 -60.6072
223.388672 99.425 -63.5571
223.754883 99.604 -66.6093
224.121094 99.749 -69.7634
224.487305 99.856 -73.0077
224.853516 99.919 -76.3049
225.219727 99.934 -79.5940
225.585938 99.902 -82.8048
225.952148 99.829 -85.8774
226.318359 99.719 -88.7721
226.684570 99.579 -91.4640
227.050781 99.411 -93.9255
227.416992 99.220 -96.1088
227.783203 99.014 -97.9453
228.149414 98.809 -99.3701
228.515625 98.630 -100.3644
228.881836 98.504 -100.9950
229.248047 98.454 -101.4248
229.614258 98.490 -101.8779
229.980469 98.602 -102.5762
230.346680 98.771 -103.6837
230.712891 98.973 -105.2867
231.079102 99.184 -107.4036
231.445312 99.384 -110.0107
231.811523 99.559 -113.0649
232.177734 99.698 -116.5184
232.543945 99.793 -120.3274
232.910156 99.838 -124.4524
233.276367 99.825 -128.8553
233.642578 99.749 -133.4935
234.008789 99.601 -138.3171
234.375000 99.378 -143.2678
234.741211 99.075 -148.2815
235.107422 98.691 -153.2938
235.473633 98.227 -158.2433
235.839844 97.682 -163.0702
236.206055 97.060 -167.7153
236.572266 96.366 -172.1185
236.938477 95.608 -176.2239
237.304688 94.801 -179.9944
237.670898 93.962 176.5615
238.037109 93.112 173.3651
238.403320 92.270 170.2539
238.769531 91.444 166.9900
239.135742 90.634 163.2893
239.501953 89.828 158.8502
239.868164 89.015 153.3632
240.234375 88.190 146.5004
240.600586 87.365 137.9064
240.966797 86.592 127.2333
241.333008 85.971 114.2909
241.699219 85.649 99.3517
242.065430 85.758 83.4075
242.431641 86.320 67.9102
242.797852 87.230 54.0172
243.164062 88.335 42.1472
243.530273 89.513 32.1477
243.896484 90.689 23.6440
244.262695 91.824 16.2542
244.628906 92.901 9.6686
244.995117 93.911 3.6571
245.361328 94.854 -1.9464
245.727539 95.731 -7.2640
246.093750 96.545 -12.3884
246.459961 97.297 -17.3899
246.826172 97.986 -22.3170
247.192383 98.611 -27.1951
247.558594 99.170 -32.0256
247.924805 99.663 -36.7887
248.291016 100.090 -41.4479
248.657227 100.456 -45.9581
249.023438 100.764 -50.2738
249.389648 101.024 -54.3550
249.755859 101.245 -58.1747
250.122070 101.439 -61.7224
250.488281 101.615 -65.0038
250.854492 101.784 -68.0404
251.220703 101.951 -70.8646
251.586914 102.124 -73.5151
251.953125 102.306 -76.0339
252.319336 102.498 -78.4635
252.685547 102.701 -80.8455
253.051758 102.913 -83.2167
253.417969 103.131 -85.6055
253.784180 103.350 -88.0277
254.150391 103.566 -90.4849
254.516602 103.777 -92.9690
254.882812 103.982 -95.4689
255.249023 104.182 -97.9771
255.615234 104.379 -100.4941
255.981445 104.573 -103.0273
256.347656 104.766 -105.5879
256.713867 104.960 -108.1880
257.080078 105.155 -110.8424
257.446289 105.355 -113.5730
257.812500 105.559 -116.4110
258.178711 105.768 -119.3982
258.544922 105.980 -122.5812
258.911133 106.190 -126.0040
259.277344 106.391 -129.7019
259.643555 106.574 -133.6980
260.009766 106.731 -138.0024
260.375977 106.852 -142.6136
260.742188 106.926 -147.5181
261.108398 106.943 -152.6895
261.474609 106.891 -158.0868
261.840820 106.761 -163.6541
262.207031 106.543 -169.3203
262.573242 106.229 -174.9995
262.939453 105.814 179.4088
263.305664 105.291 174.0205
263.671875 104.661 168.9688
264.038086 103.923 164.4037
264.404297 103.086 160.4916
264.770508 102.163 157.4081
265.136719 101.178 155.3246
265.502930 100.166 154.3832
265.869141 99.170 154.6627
266.235352 98.242 156.1382
266.601562 97.435 158.6469
266.967773 96.791 161.8833
267.333984 96.327 165.4464
267.700195 96.034 168.9323
268.066406 95.878 172.0365
268.432617 95.817 174.6079
268.798828 95.808 176.6392
269.165039 95.825 178.2113
269.531250 95.852 179.4344
269.897461 95.883 -179.5948
270.263672 95.920 -178.8132
270.629883 95.964 -178.1882
270.996094 96.018 -177.7090
271.362305 96.083 -177.3787
271.728516 96.160 -177.2108
272.094727 96.249 -177.2289
272.460938 96.347 -177.4624
272.827148 96.450 -177.9414
273.193359 96.550 -178.6875
273.559570 96.639 -179.7067
273.925781 96.709 179.0122
274.291992 96.754 177.4944
274.658203 96.767 175.7732
275.024414 96.747 173.8788
275.390625 96.694 171.8301
275.756836 96.607 169.6299
276.123047 96.483 167.2633
276.489258 96.318 164.7053
276.855469 96.105 161.9294
277.221680 95.830 158.9159
277.587891 95.478 155.6560
277.954102 95.031 152.1523
278.320312 94.466 148.4189
278.686523 93.754 144.4807
279.052734 92.857 140.3773
279.418945 91.720 136.1698
279.785156 90.264 131.9493
280.151367 88.355 127.8596
280.517578 85.738 124.1704
280.883789 81.793 121.6399
281.250000 74.190 125.0066
281.616211 68.370 -99.5399
281.982422 79.768 -83.9468
282.348633 84.596 -85.1305
282.714844 87.650 -88.0286
283.081055 89.864 -91.3982
283.447266 91.581 -94.9211
283.813477 92.969 -98.4733
284.179688 94.122 -101.9962
284.545898 95.098 -105.4648
284.912109 95.937 -108.8734
285.278320 96.666 -112.2236
285.644531 97.301 -115.5151
286.010742 97.857 -118.7408
286.376953 98.344 -121.8873
286.743164 98.772 -124.9401
287.109375 99.148 -127.8912
287.475586 99.482 -130.7417
287.841797 99.778 -133.4993
288.208008 100.042 -136.1724
288.574219 100.275 -138.7648
288.940430 100.479 -141.2725
289.306641 100.657 -143.6848
289.672852 100.809 -145.9886
290.039062 100.941 -148.1714
290.405273 101.055 -150.2220
290.771484 101.155 -152.1317
291.137695 101.246 -153.8953
291.503906 101.333 -155.5129
291.870117 101.423 -156.9950
292.236328 101.519 -158.3612
292.602539 101.626 -159.6392
292.968750 101.746 -160.8594
293.334961 101.881 -162.0537
293.701172 102.031 -163.2556
294.067383 102.196 -164.5009
294.433594 102.373 -165.8262
294.799805 102.558 -167.2604
295.166016 102.744 -168.8143
295.532227 102.924 -170.4773
295.898438 103.096 -172.2197
296.264648 103.257 -174.0056
296.630859 103.410 -175.8054
296.997070 103.559 -177.6053
297.363281 103.709 -179.4070
297.729492 103.860 178.7792
298.095703 104.017 176.9406
298.461914 104.180 175.0642
298.828125 104.352 173.1337
299.194336 104.536 171.1207
299.560547 104.732 168.9838
299.926758 104.939 166.6713
