* Measurement data measured by REW V5.20.8
* Source: ASIO hdspfire, Analog 1 (1)
* Format: 4M Log Swept Sine, 1 sweep at -12.0 dBFS with no timing reference
* Dated: 13 juin 2022 14:22:51
* REW Settings:
*  C-weighting compensation: Off
*  Target level: 75.0 dB
* Note: ; 
* Measurement: off_0x1400_4_4 juin 13
* Smoothing: None
* Frequency Step: 0.36621094 Hz
* Start Frequency: 0.36621094 Hz
*
* Freq(Hz) SPL(dB) Phase(degrees)
0.366211 8.722 -143.5079
0.732422 12.687 -153.7847
1.098633 13.600 -176.0991
1.464844 11.226 149.0466
1.831055 7.446 58.3881
2.197266 15.613 -19.1606
2.563477 20.795 -53.9139
2.929688 23.052 -80.5587
3.295898 22.914 -102.6985
3.662109 19.928 -115.2899
4.028320 15.268 -88.0634
4.394531 19.203 -59.1101
4.760742 20.452 -75.7924
5.126953 12.859 -152.2011
5.493164 26.720 91.0943
5.859375 35.162 59.1793
6.225586 40.233 32.7375
6.591797 43.552 8.1844
6.958008 45.666 -14.5004
7.324219 46.860 -34.3116
7.690430 47.408 -49.4067
8.056641 47.836 -57.8236
8.422852 48.968 -60.8550
8.789062 51.044 -64.6603
9.155273 53.363 -72.6461
9.521484 55.323 -83.0742
9.887695 56.768 -92.9474
10.253906 57.865 -99.6922
10.620117 59.066 -102.3282
10.986328 60.821 -103.2416
11.352539 63.021 -106.4120
11.718750 65.167 -113.0961
12.084961 66.906 -122.0007
12.451172 68.117 -131.1979
12.817383 68.843 -138.7627
13.183594 69.302 -142.9584
13.549805 69.933 -143.2397
13.916016 71.166 -141.9565
14.282227 72.935 -142.9622
14.648438 74.795 -147.7642
15.014648 76.409 -155.4933
15.380859 77.643 -164.7097
15.747070 78.487 -174.1368
16.113281 78.996 177.2860
16.479492 79.289 170.3968
16.845703 79.552 165.5794
17.211914 79.988 162.3410
17.578125 80.698 159.2990
17.944336 81.594 155.0854
18.310547 82.488 149.2507
18.676758 83.219 142.2396
19.042969 83.712 134.9238
19.409180 83.977 128.2571
19.775391 84.105 123.0260
20.141602 84.259 119.5008
20.507812 84.601 117.0828
20.874023 85.177 114.5120
21.240234 85.877 110.7679
21.606445 86.538 105.6813
21.972656 87.039 99.7610
22.338867 87.342 93.7615
22.705078 87.476 88.3726
23.071289 87.526 84.0083
23.437500 87.592 80.6589
23.803711 87.730 77.9189
24.169922 87.945 75.2839
24.536133 88.193 72.5093
24.902344 88.433 69.7130
25.268555 88.669 67.1767
25.634766 88.952 65.0323
26.000977 89.344 63.0364
26.367188 89.863 60.6277
26.733398 90.458 57.2639
27.099609 91.036 52.7363
27.465820 91.505 47.2236
27.832031 91.799 41.1730
28.198242 91.888 35.1823
28.564453 91.780 29.9391
28.930664 91.537 26.1626
29.296875 91.289 24.4151
29.663086 91.238 24.6611
30.029297 91.562 25.8324
30.395508 92.272 26.2285
30.761719 93.205 24.6848
31.127930 94.162 21.0920
31.494141 95.012 15.9972
31.860352 95.702 10.1127
32.226562 96.238 4.0690
32.592773 96.654 -1.6840
32.958984 97.005 -6.9275
33.325195 97.347 -11.6799
33.691406 97.709 -16.1179
34.057617 98.089 -20.4203
34.423828 98.471 -24.6332
34.790039 98.844 -28.6534
35.156250 99.221 -32.3387
35.522461 99.637 -35.6672
35.888672 100.121 -38.8270
36.254883 100.676 -42.1382
36.621094 101.267 -45.8462
36.987305 101.842 -49.9613
37.353516 102.367 -54.2671
37.719727 102.842 -58.4645
38.085938 103.303 -62.3607
38.452148 103.795 -66.0089
38.818359 104.347 -69.7029
39.184570 104.942 -73.7942
39.550781 105.531 -78.4671
39.916992 106.059 -83.6432
40.283203 106.493 -89.0458
40.649414 106.829 -94.3340
41.015625 107.096 -99.2350
41.381836 107.336 -103.6366
41.748047 107.591 -107.6105
42.114258 107.883 -111.3475
42.480469 108.213 -115.0416
42.846680 108.569 -118.8070
43.212891 108.943 -122.6769
43.579102 109.325 -126.6550
43.945312 109.711 -130.7592
44.311523 110.093 -135.0171
44.677734 110.464 -139.4331
45.043945 110.814 -143.9631
45.410156 111.140 -148.5271
45.776367 111.449 -153.0536
46.142578 111.754 -157.5280
46.508789 112.067 -162.0079
46.875000 112.389 -166.5925
47.241211 112.712 -171.3632
47.607422 113.020 -176.3419
47.973633 113.303 178.5103
48.339844 113.558 173.2565
48.706055 113.788 167.9382
49.072266 114.000 162.5470
49.438477 114.196 157.0298
49.804688 114.372 151.3220
50.170898 114.514 145.3857
50.537109 114.608 139.2317
50.903320 114.643 132.9160
51.269531 114.610 126.5200
51.635742 114.509 120.1265
52.001953 114.342 113.8025
52.368164 114.114 107.5927
52.734375 113.828 101.5243
53.100586 113.486 95.6182
53.466797 113.089 89.8997
53.833008 112.638 84.4058
54.199219 112.135 79.1835
54.565430 111.585 74.2831
54.931641 110.995 69.7458
55.297852 110.373 65.5955
55.664062 109.729 61.8364
56.030273 109.068 58.4651
56.396484 108.394 55.4852
56.762695 107.713 52.9181
57.128906 107.034 50.7904
57.495117 106.373 49.0975
57.861328 105.745 47.7648
58.227539 105.161 46.6456
58.593750 104.605 45.5868
58.959961 104.050 44.5289
59.326172 103.466 43.5747
59.692383 102.839 42.9702
60.058594 102.188 42.9996
60.424805 101.560 43.8301
60.791016 101.012 45.3920
61.157227 100.577 47.4089
61.523438 100.255 49.5906
61.889648 100.028 51.8099
62.255859 99.889 54.0760
62.622070 99.860 56.3398
62.988281 99.961 58.3459
63.354492 100.181 59.7122
63.720703 100.468 60.1646
64.086914 100.757 59.6909
64.453125 101.000 58.4956
64.819336 101.178 56.8528
65.185547 101.299 54.9772
65.551758 101.374 52.9729
65.917969 101.411 50.8577
66.284180 101.408 48.6316
66.650391 101.360 46.3359
67.016602 101.263 44.0619
67.382812 101.122 41.9113
67.749023 100.952 39.9399
68.115234 100.768 38.1256
68.481445 100.574 36.3883
68.847656 100.362 34.6545
69.213867 100.114 32.9271
69.580078 99.812 31.3146
69.946289 99.450 30.0110
70.312500 99.043 29.2356
70.678711 98.622 29.1526
71.044922 98.232 29.7949
71.411133 97.917 31.0298
71.777344 97.699 32.6049
72.143555 97.580 34.2620
72.509766 97.543 35.8351
72.875977 97.576 37.2567
73.242188 97.672 38.4847
73.608398 97.830 39.4274
73.974609 98.039 39.9442
74.340820 98.274 39.9258
74.707031 98.498 39.3789
75.073242 98.684 38.4479
75.439453 98.820 37.3540
75.805664 98.919 36.2955
76.171875 99.008 35.3566
76.538086 99.108 34.4769
76.904297 99.228 33.5104
77.270508 99.358 32.3323
77.636719 99.480 30.9200
78.002930 99.578 29.3505
78.369141 99.652 27.7316
78.735352 99.714 26.1260
79.101562 99.776 24.5138
79.467773 99.840 22.8142
79.833984 99.901 20.9473
80.200195 99.942 18.8864
80.566406 99.949 16.6720
80.932617 99.913 14.3881
81.298828 99.834 12.1283
81.665039 99.714 9.9730
82.031250 99.559 7.9843
82.397461 99.377 6.2094
82.763672 99.177 4.6844
83.129883 98.967 3.4281
83.496094 98.760 2.4351
83.862305 98.563 1.6765
84.228516 98.380 1.1135
84.594727 98.215 0.7166
84.960938 98.070 0.4719
85.327148 97.951 0.3690
85.693359 97.864 0.3730
86.059570 97.818 0.4042
86.425781 97.810 0.3470
86.791992 97.830 0.0920
87.158203 97.856 -0.4080
87.524414 97.865 -1.1028
87.890625 97.843 -1.8521
88.256836 97.793 -2.4777
88.623047 97.737 -2.8457
88.989258 97.708 -2.9496
89.355469 97.733 -2.9425
89.721680 97.819 -3.0763
90.087891 97.943 -3.5696
90.454102 98.070 -4.4978
90.820312 98.166 -5.7767
91.186523 98.214 -7.2249
91.552734 98.215 -8.6521
91.918945 98.185 -9.9290
92.285156 98.142 -11.0135
92.651367 98.105 -11.9381
93.017578 98.082 -12.7692
93.383789 98.074 -13.5713
93.750000 98.079 -14.3861
94.116211 98.092 -15.2290
94.482422 98.112 -16.0895
94.848633 98.136 -16.9396
95.214844 98.172 -17.7562
95.581055 98.229 -18.5571
95.947266 98.318 -19.4264
96.313477 98.436 -20.4989
96.679688 98.567 -21.8982
97.045898 98.686 -23.6642
97.412109 98.766 -25.7228
97.778320 98.793 -27.9143
98.144531 98.769 -30.0623
98.510742 98.710 -32.0438
98.876953 98.637 -33.8311
99.243164 98.564 -35.4771
99.609375 98.496 -37.0604
99.975586 98.430 -38.6284
100.341797 98.361 -40.1816
100.708008 98.289 -41.7041
101.074219 98.221 -43.2036
101.440430 98.156 -44.7211
101.806641 98.089 -46.2985
102.172852 98.011 -47.9333
102.539062 97.913 -49.5627
102.905273 97.799 -51.0974
103.271484 97.683 -52.4863
103.637695 97.582 -53.7675
104.003906 97.506 -55.0629
104.370117 97.449 -56.5106
104.736328 97.391 -58.1832
105.102539 97.312 -60.0519
105.468750 97.199 -62.0144
105.834961 97.056 -63.9617
106.201172 96.893 -65.8397
106.567383 96.721 -67.6735
106.933594 96.545 -69.5398
107.299805 96.354 -71.5117
107.666016 96.135 -73.6093
108.032227 95.871 -75.7860
108.398438 95.553 -77.9475
108.764648 95.175 -79.9803
109.130859 94.738 -81.7722
109.497070 94.249 -83.2152
109.863281 93.717 -84.2012
110.229492 93.158 -84.6301
110.595703 92.597 -84.4430
110.961914 92.064 -83.6709
111.328125 91.580 -82.4562
111.694336 91.149 -80.9951
112.060547 90.748 -79.4105
112.426758 90.349 -77.6385
112.792969 89.941 -75.4222
113.159180 89.554 -72.4438
113.525391 89.261 -68.5656
113.891602 89.146 -64.0580
114.257812 89.250 -59.5728
114.624023 89.538 -55.7762
114.990234 89.925 -52.9807
115.356445 90.336 -51.1077
115.722656 90.732 -49.8938
116.088867 91.107 -49.0968
116.455078 91.471 -48.5948
116.821289 91.835 -48.3815
117.187500 92.196 -48.4988
117.553711 92.543 -48.9657
117.919922 92.865 -49.7430
118.286133 93.151 -50.7422
118.652344 93.401 -51.8574
119.018555 93.623 -53.0024
119.384766 93.829 -54.1368
119.750977 94.032 -55.2732
120.117188 94.238 -56.4637
120.483398 94.448 -57.7700
120.849609 94.656 -59.2319
121.215820 94.855 -60.8523
121.582031 95.043 -62.6063
121.948242 95.219 -64.4669
122.314453 95.386 -66.4313
122.680664 95.547 -68.5292
123.046875 95.699 -70.8060
123.413086 95.833 -73.2926
123.779297 95.940 -75.9808
124.145508 96.009 -78.8241
124.511719 96.038 -81.7579
124.877930 96.029 -84.7278
125.244141 95.985 -87.7056
125.610352 95.910 -90.6865
125.976562 95.804 -93.6697
126.342773 95.667 -96.6436
126.708984 95.501 -99.5890
127.075195 95.310 -102.5020
127.441406 95.100 -105.4172
127.807617 94.871 -108.4091
128.173828 94.613 -111.5570
128.540039 94.309 -114.8949
128.906250 93.937 -118.3781
129.272461 93.484 -121.8909
129.638672 92.948 -125.2947
130.004883 92.340 -128.4946
130.371094 91.673 -131.4917
130.737305 90.955 -134.3857
131.103516 90.174 -137.3197
131.469727 89.299 -140.4001
131.835938 88.288 -143.6530
132.202148 87.095 -147.0498
132.568359 85.665 -150.5908
132.934570 83.911 -154.4124
133.300781 81.664 -158.9204
133.666992 78.537 -165.1608
134.033203 73.487 -177.1649
134.399414 64.362 124.8159
134.765625 72.050 39.0079
135.131836 78.093 23.5826
135.498047 81.736 16.3812
135.864258 84.340 11.3939
136.230469 86.389 7.3226
136.596680 88.103 3.6294
136.962891 89.586 0.0233
137.329102 90.891 -3.6342
137.695312 92.047 -7.3756
138.061523 93.077 -11.1804
138.427734 94.000 -15.0219
138.793945 94.832 -18.8883
139.160156 95.585 -22.7804
139.526367 96.265 -26.6919
139.892578 96.879 -30.5984
140.258789 97.431 -34.4624
140.625000 97.931 -38.2506
140.991211 98.389 -41.9530
141.357422 98.815 -45.5870
141.723633 99.213 -49.1868
142.089844 99.585 -52.7814
142.456055 99.928 -56.3802
142.822266 100.241 -59.9714
143.188477 100.525 -63.5337
143.554688 100.784 -67.0507
143.920898 101.020 -70.5170
144.287109 101.236 -73.9340
144.653320 101.433 -77.2993
145.019531 101.611 -80.6003
145.385742 101.775 -83.8184
145.751953 101.928 -86.9404
146.118164 102.079 -89.9720
146.484375 102.232 -92.9419
146.850586 102.390 -95.8932
147.216797 102.552 -98.8669
147.583008 102.715 -101.8889
147.949219 102.874 -104.9636
148.315430 103.027 -108.0826
148.681641 103.175 -111.2368
149.047852 103.319 -114.4279
149.414062 103.460 -117.6713
149.780273 103.596 -120.9906
150.146484 103.725 -124.4053
150.512695 103.840 -127.9187
150.878906 103.937 -131.5142
151.245117 104.012 -135.1576
151.611328 104.065 -138.8085
151.977539 104.099 -142.4315
152.343750 104.117 -146.0055
152.709961 104.125 -149.5265
153.076172 104.128 -153.0044
153.442383 104.128 -156.4569
153.808594 104.126 -159.9032
154.174805 104.122 -163.3613
154.541016 104.115 -166.8466
154.907227 104.104 -170.3712
155.273438 104.087 -173.9427
155.639648 104.063 -177.5630
156.005859 104.030 178.7704
156.372070 103.988 175.0610
156.738281 103.936 171.3103
157.104492 103.873 167.5155
157.470703 103.799 163.6735
157.836914 103.712 159.7842
158.203125 103.610 155.8535
158.569336 103.492 151.8906
158.935547 103.358 147.9020
159.301758 103.208 143.8876
159.667969 103.041 139.8412
160.034180 102.854 135.7581
160.400391 102.642 131.6447
160.766602 102.403 127.5242
161.132812 102.131 123.4342
161.499023 101.828 119.4169
161.865234 101.494 115.5099
162.231445 101.133 111.7419
162.597656 100.745 108.1381
162.963867 100.332 104.7290
163.330078 99.896 101.5586
163.696289 99.441 98.6814
164.062500 98.977 96.1497
164.428711 98.515 93.9984
164.794922 98.069 92.2349
165.161133 97.653 90.8411
165.527344 97.279 89.7826
165.893555 96.960 89.0123
166.259766 96.708 88.4608
166.625977 96.534 88.0217
166.992188 96.446 87.5494
167.358398 96.438 86.8817
167.724609 96.498 85.8776
168.090820 96.607 84.4482
168.457031 96.743 82.5635
168.823242 96.890 80.2372
169.189453 97.034 77.5066
169.555664 97.166 74.4174
169.921875 97.279 71.0148
170.288086 97.368 67.3418
170.654297 97.430 63.4382
171.020508 97.461 59.3405
171.386719 97.461 55.0824
171.752930 97.425 50.6981
172.119141 97.353 46.2245
172.485352 97.242 41.7040
172.851562 97.093 37.1842
173.217773 96.907 32.7150
173.583984 96.686 28.3429
173.950195 96.437 24.1066
174.316406 96.164 20.0323
174.682617 95.874 16.1340
175.048828 95.572 12.4135
175.415039 95.264 8.8633
175.781250 94.953 5.4684
176.147461 94.642 2.2095
176.513672 94.332 -0.9353
176.879883 94.022 -3.9851
177.246094 93.710 -6.9530
177.612305 93.394 -9.8436
177.978516 93.072 -12.6552
178.344727 92.744 -15.3834
178.710938 92.407 -18.0256
179.077148 92.059 -20.5804
179.443359 91.698 -23.0428
179.809570 91.319 -25.3960
180.175781 90.917 -27.6057
180.541992 90.491 -29.6210
180.908203 90.040 -31.3812
181.274414 89.567 -32.8254
181.640625 89.075 -33.8965
182.006836 88.570 -34.5364
182.373047 88.058 -34.6748
182.739258 87.548 -34.2201
183.105469 87.057 -33.0671
183.471680 86.614 -31.1263
183.837891 86.261 -28.3772
184.204102 86.044 -24.9277
184.570312 86.009 -21.0507
184.936523 86.177 -17.1631
185.302734 86.541 -13.7325
185.668945 87.061 -11.1490
186.035156 87.679 -9.6333
186.401367 88.334 -9.2201
186.767578 88.978 -9.8044
187.133789 89.576 -11.2074
187.500000 90.111 -13.2328
187.866211 90.573 -15.7010
188.232422 90.963 -18.4652
188.598633 91.284 -21.4120
188.964844 91.539 -24.4552
189.331055 91.735 -27.5278
189.697266 91.874 -30.5748
190.063477 91.962 -33.5490
190.429688 92.003 -36.4080
190.795898 92.002 -39.1124
191.162109 91.963 -41.6245
191.528320 91.893 -43.9088
191.894531 91.798 -45.9354
192.260742 91.688 -47.6838
192.626953 91.571 -49.1467
192.993164 91.456 -50.3318
193.359375 91.352 -51.2603
193.725586 91.266 -51.9653
194.091797 91.204 -52.4912
194.458008 91.169 -52.8915
194.824219 91.164 -53.2236
195.190430 91.186 -53.5405
195.556641 91.230 -53.8831
195.922852 91.293 -54.2782
196.289062 91.370 -54.7460
196.655273 91.455 -55.3046
197.021484 91.544 -55.9694
197.387695 91.628 -56.7423
197.753906 91.697 -57.5980
198.120117 91.743 -58.4806
198.486328 91.764 -59.3129
198.852539 91.762 -60.0178
199.218750 91.745 -60.5380
199.584961 91.720 -60.8420
199.951172 91.695 -60.9170
200.317383 91.677 -60.7527
200.683594 91.672 -60.3347
201.049805 91.692 -59.6552
201.416016 91.747 -58.7318
201.782227 91.849 -57.6206
202.148438 92.004 -56.4043
202.514648 92.215 -55.1643
202.880859 92.478 -53.9595
203.247070 92.791 -52.8265
203.613281 93.155 -51.8015
203.979492 93.572 -50.9391
204.345703 94.039 -50.3138
204.711914 94.551 -50.0013
205.078125 95.098 -50.0585
205.444336 95.667 -50.5139
205.810547 96.249 -51.3760
206.176758 96.836 -52.6442
206.542969 97.418 -54.3177
206.909180 97.987 -56.3940
207.275391 98.534 -58.8621
207.641602 99.050 -61.6965
208.007812 99.525 -64.8555
208.374023 99.952 -68.2832
208.740234 100.325 -71.9146
209.106445 100.643 -75.6812
209.472656 100.906 -79.5151
209.838867 101.114 -83.3525
210.205078 101.271 -87.1372
210.571289 101.384 -90.8237
210.937500 101.458 -94.3772
211.303711 101.500 -97.7749
211.669922 101.517 -101.0056
212.036133 101.513 -104.0659
212.402344 101.493 -106.9590
212.768555 101.462 -109.6919
213.134766 101.422 -112.2734
213.500977 101.377 -114.7114
213.867188 101.328 -117.0117
214.233398 101.276 -119.1758
214.599609 101.226 -121.2021
214.965820 101.179 -123.0898
215.332031 101.141 -124.8464
215.698242 101.117 -126.4912
216.064453 101.110 -128.0566
216.430664 101.122 -129.5840
216.796875 101.153 -131.1133
217.163086 101.201 -132.6797
217.529297 101.263 -134.3096
217.895508 101.335 -136.0222
218.261719 101.414 -137.8328
218.627930 101.495 -139.7520
218.994141 101.575 -141.7827
219.360352 101.646 -143.9155
219.726562 101.707 -146.1289
220.092773 101.754 -148.3933
220.458984 101.787 -150.6782
220.825195 101.809 -152.9614
221.191406 101.822 -155.2339
221.557617 101.829 -157.4980
221.923828 101.829 -159.7612
222.290039 101.824 -162.0278
222.656250 101.812 -164.2959
223.022461 101.792 -166.5564
223.388672 101.765 -168.8010
223.754883 101.734 -171.0264
224.121094 101.699 -173.2349
224.487305 101.661 -175.4341
224.853516 101.622 -177.6318
225.219727 101.580 -179.8340
225.585938 101.536 177.9507
225.952148 101.491 175.7075
226.318359 101.443 173.4136
226.684570 101.388 171.0464
227.050781 101.319 168.5999
227.416992 101.227 166.0942
227.783203 101.107 163.5830
228.149414 100.955 161.1433
228.515625 100.775 158.8564
228.881836 100.578 156.7861
229.248047 100.376 154.9639
229.614258 100.182 153.3809
229.980469 100.009 151.9956
230.346680 99.863 150.7480
230.712891 99.749 149.5693
231.079102 99.667 148.3916
231.445312 99.615 147.1538
231.811523 99.589 145.8057
232.177734 99.582 144.3096
232.543945 99.589 142.6433
232.910156 99.604 140.7939
233.276367 99.622 138.7532
233.642578 99.637 136.5156
234.008789 99.644 134.0850
234.375000 99.636 131.4775
234.741211 99.608 128.7253
235.107422 99.559 125.8706
235.473633 99.492 122.9497
235.839844 99.411 119.9788
236.206055 99.320 116.9478
236.572266 99.223 113.8264
236.938477 99.118 110.5801
237.304688 99.001 107.1846
237.670898 98.869 103.6353
238.037109 98.719 99.9390
238.403320 98.550 96.1013
238.769531 98.364 92.1123
239.135742 98.163 87.9404
239.501953 97.945 83.5388
239.868164 97.706 78.8555
240.234375 97.439 73.8455
240.600586 97.135 68.4741
240.966797 96.785 62.7178
241.333008 96.380 56.5576
241.699219 95.910 49.9783
242.065430 95.369 42.9656
242.431641 94.748 35.5098
242.797852 94.043 27.6042
243.164062 93.253 19.2432
243.530273 92.387 10.4146
243.896484 91.461 1.0945
244.262695 90.505 -8.7578
244.628906 89.564 -19.1855
244.995117 88.697 -30.2017
245.361328 87.973 -41.7322
245.727539 87.458 -53.5647
246.093750 87.198 -65.3494
246.459961 87.207 -76.6885
246.826172 87.460 -87.2698
247.192383 87.909 -96.9565
247.558594 88.498 -105.7874
247.924805 89.174 -113.9067
248.291016 89.890 -121.4907
248.657227 90.607 -128.6907
249.023438 91.297 -135.6125
249.389648 91.940 -142.3154
249.755859 92.522 -148.8232
250.122070 93.037 -155.1360
250.488281 93.484 -161.2415
250.854492 93.865 -167.1223
251.220703 94.186 -172.7627
251.586914 94.455 -178.1550
251.953125 94.681 176.6941
252.319336 94.871 171.7612
252.685547 95.034 167.0085
253.051758 95.173 162.3931
253.417969 95.290 157.8762
253.784180 95.384 153.4336
254.150391 95.456 149.0540
254.516602 95.506 144.7324
254.882812 95.537 140.4590
255.249023 95.553 136.2119
255.615234 95.555 131.9587
255.981445 95.542 127.6633
256.347656 95.510 123.2976
256.713867 95.455 118.8459
257.080078 95.373 114.3064
257.446289 95.258 109.6826
257.812500 95.106 104.9832
258.178711 94.911 100.2239
258.544922 94.665 95.4407
258.911133 94.361 90.7026
259.277344 93.994 86.1248
259.643555 93.567 81.8657
260.009766 93.094 78.1140
260.375977 92.610 75.0408
260.742188 92.165 72.7256
261.108398 91.822 71.0620
261.474609 91.637 69.7100
261.840820 91.630 68.1643
262.207031 91.779 65.9368
262.573242 92.034 62.7261
262.939453 92.341 58.4570
263.305664 92.658 53.2185
263.671875 92.961 47.1707
264.038086 93.242 40.4817
264.404297 93.502 33.2974
264.770508 93.745 25.7371
265.136719 93.977 17.8999
265.502930 94.206 9.8755
265.869141 94.436 1.7468
266.235352 94.670 -6.4070
266.601562 94.913 -14.5151
266.967773 95.168 -22.5166
267.333984 95.435 -30.3633
267.700195 95.716 -38.0173
268.066406 96.011 -45.4548
268.432617 96.318 -52.6660
268.798828 96.639 -59.6597
269.165039 96.970 -66.4609
269.531250 97.307 -73.1033
269.897461 97.643 -79.6189
270.263672 97.972 -86.0256
270.629883 98.284 -92.3250
270.996094 98.574 -98.5039
271.362305 98.838 -104.5476
271.728516 99.076 -110.4456
272.094727 99.287 -116.1965
272.460938 99.469 -121.8015
272.827148 99.620 -127.2566
273.193359 99.736 -132.5435
273.559570 99.818 -137.6326
273.925781 99.868 -142.4900
274.291992 99.890 -147.0918
274.658203 99.893 -151.4333
275.024414 99.881 -155.5315
275.390625 99.859 -159.4153
275.756836 99.828 -163.1182
276.123047 99.787 -166.6650
276.489258 99.733 -170.0737
276.855469 99.663 -173.3518
277.221680 99.573 -176.4961
277.587891 99.456 -179.4851
277.954102 99.307 177.7319
278.320312 99.124 175.2393
278.686523 98.908 173.1477
279.052734 98.673 171.5718
279.418945 98.440 170.6013
279.785156 98.236 170.2666
280.151367 98.092 170.5227
280.517578 98.035 171.2471
280.883789 98.084 172.2598
281.250000 98.246 173.3484
281.616211 98.520 174.2959
281.982422 98.892 174.9075
282.348633 99.340 175.0398
282.714844 99.840 174.6138
283.081055 100.367 173.6135
283.447266 100.901 172.0654
283.813477 101.428 170.0161
284.179688 101.938 167.5132
284.545898 102.422 164.5984
284.912109 102.874 161.3105
285.278320 103.286 157.6887
285.644531 103.652 153.7803
286.010742 103.965 149.6401
286.376953 104.223 145.3337
286.743164 104.423 140.9302
287.109375 104.565 136.5017
287.475586 104.653 132.1155
287.841797 104.693 127.8303
288.208008 104.693 123.6880
288.574219 104.662 119.7102
288.940430 104.609 115.8962
289.306641 104.540 112.2273
289.672852 104.460 108.6729
290.039062 104.372 105.2021
290.405273 104.274 101.7910
290.771484 104.165 98.4255
291.137695 104.044 95.0999
291.503906 103.910 91.8145
291.870117 103.763 88.5698
292.236328 103.603 85.3677
292.602539 103.430 82.2083
292.968750 103.243 79.0918
293.334961 103.044 76.0183
293.701172 102.831 72.9856
294.067383 102.606 69.9895
294.433594 102.368 67.0215
294.799805 102.116 64.0732
295.166016 101.848 61.1355
295.532227 101.564 58.2019
295.898438 101.259 55.2656
296.264648 100.931 52.3176
296.630859 100.576 49.3447
296.997070 100.188 46.3350
297.363281 99.755 43.2832
297.729492 99.266 40.2046
298.095703 98.706 37.1421
298.461914 98.060 34.1733
298.828125 97.312 31.4099
299.194336 96.447 28.9983
299.560547 95.453 27.1260
299.926758 94.312 26.0442
