* Measurement data measured by REW V5.20.8
* Source: ASIO hdspfire, Analog 1 (1)
* Format: 4M Log Swept Sine, 1 sweep at -12.0 dBFS with no timing reference
* Dated: 13 juin 2022 13:48:36
* REW Settings:
*  C-weighting compensation: Off
*  Target level: 75.0 dB
* Note: ; 
* Measurement: on_0x1400_1_1 juin 13
* Smoothing: None
* Frequency Step: 0.36621094 Hz
* Start Frequency: 0.36621094 Hz
*
* Freq(Hz) SPL(dB) Phase(degrees)
0.366211 14.988 -179.5891
0.732422 12.238 170.3763
1.098633 -0.765 83.4540
1.464844 15.712 -19.1599
1.831055 22.004 -45.9462
2.197266 24.668 -74.6621
2.563477 25.179 -110.9410
2.929688 24.766 -161.9031
3.295898 26.136 136.4577
3.662109 28.830 84.7851
4.028320 30.490 41.6839
4.394531 30.543 -2.1631
4.760742 29.456 -56.1998
5.126953 29.461 -124.4952
5.493164 31.707 170.5410
5.859375 34.231 114.0455
6.225586 36.885 61.1316
6.591797 39.920 15.0333
6.958008 42.734 -20.9690
7.324219 44.806 -47.3273
7.690430 46.146 -64.5725
8.056641 47.275 -72.9102
8.422852 48.945 -75.9393
8.789062 51.150 -80.3042
9.155273 53.172 -88.2626
9.521484 54.535 -97.4716
9.887695 55.203 -104.2080
10.253906 55.677 -104.8666
10.620117 57.013 -100.5979
10.986328 59.460 -99.7793
11.352539 62.021 -106.2117
11.718750 63.997 -117.3586
12.084961 65.175 -130.0177
12.451172 65.521 -141.2709
12.817383 65.153 -147.4761
13.183594 64.772 -144.2400
13.549805 65.940 -134.3203
13.916016 68.672 -130.7567
14.282227 71.445 -136.3680
14.648438 73.609 -147.0509
15.014648 75.084 -159.7498
15.380859 75.908 -172.6433
15.747070 76.131 175.6770
16.113281 75.832 166.7721
16.479492 75.230 162.5876
16.845703 74.881 164.3146
17.211914 75.484 168.8552
17.578125 76.947 169.9595
17.944336 78.529 165.5365
18.310547 79.738 157.2401
18.676758 80.400 147.1562
19.042969 80.470 137.0304
19.409180 79.959 128.5347
19.775391 78.956 123.6158
20.141602 77.756 124.3995
20.507812 76.968 131.4708
20.874023 77.125 141.4062
21.240234 78.077 149.9572
21.606445 79.458 156.1655
21.972656 81.137 160.0491
22.338867 82.992 161.0360
22.705078 84.802 159.0272
23.071289 86.380 154.9015
23.437500 87.670 149.9880
23.803711 88.724 145.4895
24.169922 89.709 142.0277
24.536133 90.805 139.2798
24.902344 92.087 136.1545
25.268555 93.480 131.6617
25.634766 94.845 125.5560
26.000977 96.082 118.1981
26.367188 97.152 110.1268
26.733398 98.070 101.7743
27.099609 98.867 93.3691
27.465820 99.569 84.9653
27.832031 100.190 76.5454
28.198242 100.728 68.1315
28.564453 101.180 59.8334
28.930664 101.561 51.8116
29.296875 101.900 44.1788
29.663086 102.237 36.8978
30.029297 102.601 29.7596
30.395508 102.993 22.4812
30.761719 103.381 14.8680
31.127930 103.725 6.9181
31.494141 103.994 -1.1919
31.860352 104.185 -9.2040
32.226562 104.315 -16.8928
32.592773 104.413 -24.1547
32.958984 104.507 -31.0348
33.325195 104.617 -37.6741
33.691406 104.739 -44.2070
34.057617 104.857 -50.6826
34.423828 104.958 -57.0558
34.790039 105.041 -63.2426
35.156250 105.113 -69.1837
35.522461 105.185 -74.8787
35.888672 105.262 -80.3723
36.254883 105.344 -85.7159
36.621094 105.427 -90.9404
36.987305 105.508 -96.0588
37.353516 105.585 -101.0830
37.719727 105.651 -106.0289
38.085938 105.701 -110.8959
38.452148 105.726 -115.6379
38.818359 105.725 -120.1609
39.184570 105.709 -124.3618
39.550781 105.701 -128.2006
39.916992 105.729 -131.7609
40.283203 105.807 -135.2424
40.649414 105.926 -138.8729
41.015625 106.058 -142.7925
41.381836 106.170 -146.9949
41.748047 106.237 -151.3527
42.114258 106.254 -155.6888
42.480469 106.227 -159.8501
42.846680 106.175 -163.7529
43.212891 106.120 -167.3937
43.579102 106.072 -170.8275
43.945312 106.036 -174.1321
44.311523 106.007 -177.3772
44.677734 105.983 179.3940
45.043945 105.958 176.1693
45.410156 105.924 172.9634
45.776367 105.881 169.8054
46.142578 105.830 166.7195
46.508789 105.773 163.7075
46.875000 105.714 160.7446
47.241211 105.649 157.7952
47.607422 105.571 154.8445
47.973633 105.469 151.9216
48.339844 105.340 149.0989
48.706055 105.184 146.4640
49.072266 105.013 144.0808
49.438477 104.840 141.9617
49.804688 104.676 140.0707
50.170898 104.525 138.3528
50.537109 104.389 136.7678
50.903320 104.267 135.2996
51.269531 104.163 133.9341
51.635742 104.083 132.6310
52.001953 104.028 131.3132
52.368164 103.994 129.8906
52.734375 103.967 128.3016
53.100586 103.933 126.5419
53.466797 103.878 124.6628
53.833008 103.798 122.7446
54.199219 103.695 120.8584
54.565430 103.578 119.0358
54.931641 103.456 117.2592
55.297852 103.330 115.4717
55.664062 103.198 113.6088
56.030273 103.045 111.6354
56.396484 102.857 109.5732
56.762695 102.619 107.5078
57.128906 102.324 105.5713
57.495117 101.978 103.9066
57.861328 101.593 102.6279
58.227539 101.188 101.7922
58.593750 100.775 101.4058
58.959961 100.360 101.4685
59.326172 99.946 102.0310
59.692383 99.542 103.2135
60.058594 99.181 105.1499
60.424805 98.914 107.8562
60.791016 98.800 111.1046
61.157227 98.868 114.4381
61.523438 99.098 117.3726
61.889648 99.439 119.6234
62.255859 99.836 121.1582
62.622070 100.258 122.0820
62.988281 100.694 122.4987
63.354492 101.139 122.4410
63.720703 101.586 121.8914
64.086914 102.019 120.8469
64.453125 102.415 119.3712
64.819336 102.762 117.5940
65.185547 103.061 115.6685
65.551758 103.322 113.7120
65.917969 103.561 111.7640
66.284180 103.791 109.7842
66.650391 104.015 107.6937
67.016602 104.226 105.4365
67.382812 104.412 103.0165
67.749023 104.563 100.4938
68.115234 104.679 97.9485
68.481445 104.767 95.4382
68.847656 104.836 92.9747
69.213867 104.890 90.5341
69.580078 104.928 88.0881
69.946289 104.946 85.6339
70.312500 104.940 83.2029
70.678711 104.910 80.8427
71.044922 104.862 78.5906
71.411133 104.802 76.4547
71.777344 104.738 74.4142
72.143555 104.669 72.4390
72.509766 104.595 70.5088
72.875977 104.512 68.6219
73.242188 104.419 66.7911
73.608398 104.317 65.0319
73.974609 104.207 63.3544
74.340820 104.092 61.7644
74.707031 103.974 60.2643
75.073242 103.856 58.8522
75.439453 103.741 57.5200
75.805664 103.630 56.2505
76.171875 103.523 55.0217
76.538086 103.418 53.8153
76.904297 103.313 52.6202
77.270508 103.209 51.4315
77.636719 103.105 50.2404
78.002930 103.000 49.0305
78.369141 102.890 47.7859
78.735352 102.769 46.5068
79.101562 102.627 45.2252
79.467773 102.459 44.0074
79.833984 102.268 42.9382
80.200195 102.061 42.0909
80.566406 101.852 41.4968
80.932617 101.658 41.1262
81.298828 101.488 40.8943
81.665039 101.340 40.6968
82.031250 101.205 40.4578
82.397461 101.064 40.1700
82.763672 100.905 39.9042
83.129883 100.722 39.7828
83.496094 100.524 39.9324
83.862305 100.328 40.4250
84.228516 100.155 41.2469
84.594727 100.019 42.3158
84.960938 99.923 43.5431
85.327148 99.862 44.8971
85.693359 99.837 46.4087
86.059570 99.861 48.1073
86.425781 99.956 49.9331
86.791992 100.136 51.7059
87.158203 100.397 53.1892
87.524414 100.713 54.2109
87.890625 101.048 54.7377
88.256836 101.378 54.8575
88.623047 101.690 54.7067
88.989258 101.988 54.3971
89.355469 102.280 53.9808
89.721680 102.574 53.4572
90.087891 102.872 52.7998
90.454102 103.174 51.9803
90.820312 103.479 50.9757
91.186523 103.780 49.7662
91.552734 104.074 48.3380
91.918945 104.350 46.6946
92.285156 104.600 44.8672
92.651367 104.819 42.9156
93.017578 105.005 40.9124
93.383789 105.164 38.9198
93.750000 105.302 36.9739
94.116211 105.427 35.0817
94.482422 105.546 33.2325
94.848633 105.659 31.4148
95.214844 105.769 29.6205
95.581055 105.879 27.8394
95.947266 105.992 26.0483
96.313477 106.109 24.2080
96.679688 106.227 22.2749
97.045898 106.340 20.2212
97.412109 106.439 18.0485
97.778320 106.518 15.7888
98.144531 106.573 13.4905
98.510742 106.607 11.1996
98.876953 106.623 8.9474
99.243164 106.625 6.7469
99.609375 106.617 4.5962
99.975586 106.601 2.4858
100.341797 106.580 0.4039
100.708008 106.552 -1.6615
101.074219 106.519 -3.7189
101.440430 106.477 -5.7694
101.806641 106.424 -7.8044
102.172852 106.358 -9.8041
102.539062 106.282 -11.7445
102.905273 106.197 -13.6050
103.271484 106.107 -15.3772
103.637695 106.016 -17.0673
104.003906 105.929 -18.6923
104.370117 105.849 -20.2743
104.736328 105.774 -21.8373
105.102539 105.706 -23.4043
105.468750 105.642 -24.9988
105.834961 105.581 -26.6421
106.201172 105.517 -28.3477
106.567383 105.447 -30.1149
106.933594 105.365 -31.9270
107.299805 105.268 -33.7535
107.666016 105.157 -35.5609
108.032227 105.033 -37.3210
108.398438 104.903 -39.0186
108.764648 104.768 -40.6520
109.130859 104.631 -42.2301
109.497070 104.496 -43.7683
109.863281 104.362 -45.2858
110.229492 104.229 -46.8025
110.595703 104.096 -48.3358
110.961914 103.958 -49.8951
111.328125 103.813 -51.4771
111.694336 103.659 -53.0667
112.060547 103.495 -54.6445
112.426758 103.323 -56.1970
112.792969 103.145 -57.7239
113.159180 102.961 -59.2355
113.525391 102.772 -60.7440
113.891602 102.574 -62.2523
114.257812 102.362 -63.7491
114.624023 102.137 -65.2134
114.990234 101.898 -66.6234
115.356445 101.645 -67.9619
115.722656 101.381 -69.2139
116.088867 101.106 -70.3633
116.455078 100.823 -71.3911
116.821289 100.535 -72.2832
117.187500 100.249 -73.0442
117.553711 99.969 -73.6968
117.919922 99.695 -74.2734
118.286133 99.424 -74.7925
118.652344 99.153 -75.2468
119.018555 98.882 -75.6086
119.384766 98.615 -75.8555
119.750977 98.361 -75.9954
120.117188 98.126 -76.0762
120.483398 97.911 -76.1641
120.849609 97.708 -76.3135
121.215820 97.511 -76.5469
121.582031 97.312 -76.8535
121.948242 97.107 -77.2112
122.314453 96.893 -77.6011
122.680664 96.671 -78.0144
123.046875 96.437 -78.4502
123.413086 96.191 -78.9062
123.779297 95.928 -79.3755
124.145508 95.645 -79.8464
124.511719 95.337 -80.3000
124.877930 95.001 -80.7053
125.244141 94.631 -81.0171
125.610352 94.226 -81.1758
125.976562 93.786 -81.1162
126.342773 93.314 -80.7739
126.708984 92.816 -80.0884
127.075195 92.296 -79.0005
127.441406 91.763 -77.4502
127.807617 91.225 -75.3755
128.173828 90.695 -72.7114
128.540039 90.188 -69.3833
128.906250 89.730 -65.3132
129.272461 89.360 -60.4628
129.638672 89.130 -54.9376
130.004883 89.089 -49.0812
130.371094 89.248 -43.4192
130.737305 89.566 -38.4235
131.103516 89.977 -34.2966
131.469727 90.424 -30.9662
131.835938 90.876 -28.2361
132.202148 91.328 -25.9402
132.568359 91.783 -24.0054
132.934570 92.241 -22.4199
133.300781 92.695 -21.1708
133.666992 93.140 -20.2096
134.033203 93.574 -19.4758
134.399414 94.003 -18.9388
134.765625 94.430 -18.6154
135.131836 94.852 -18.5413
135.498047 95.259 -18.7219
135.864258 95.640 -19.1040
136.230469 95.993 -19.5931
136.596680 96.326 -20.1038
136.962891 96.653 -20.6066
137.329102 96.988 -21.1439
137.695312 97.334 -21.8031
138.061523 97.688 -22.6665
138.427734 98.039 -23.7777
138.793945 98.376 -25.1357
139.160156 98.690 -26.7140
139.526367 98.979 -28.4794
139.892578 99.237 -30.3990
140.258789 99.462 -32.4379
140.625000 99.651 -34.5547
140.991211 99.805 -36.7052
141.357422 99.926 -38.8523
141.723633 100.018 -40.9744
142.089844 100.084 -43.0642
142.456055 100.125 -45.1189
142.822266 100.139 -47.1283
143.188477 100.127 -49.0688
143.554688 100.090 -50.9104
143.920898 100.032 -52.6276
144.287109 99.958 -54.2092
144.653320 99.871 -55.6591
145.019531 99.775 -56.9866
145.385742 99.668 -58.1962
145.751953 99.551 -59.2809
146.118164 99.425 -60.2213
146.484375 99.289 -60.9885
146.850586 99.149 -61.5494
147.216797 99.009 -61.8735
147.583008 98.882 -61.9447
147.949219 98.778 -61.7766
148.315430 98.709 -61.4197
148.681641 98.682 -60.9543
149.047852 98.697 -60.4664
149.414062 98.750 -60.0221
149.780273 98.834 -59.6614
150.146484 98.948 -59.4084
150.512695 99.088 -59.2902
150.878906 99.251 -59.3425
151.245117 99.429 -59.5989
151.611328 99.613 -60.0726
151.977539 99.795 -60.7488
152.343750 99.970 -61.5923
152.709961 100.134 -62.5662
153.076172 100.289 -63.6466
153.442383 100.434 -64.8254
153.808594 100.568 -66.1006
154.174805 100.688 -67.4623
154.541016 100.792 -68.8857
154.907227 100.878 -70.3345
155.273438 100.949 -71.7720
155.639648 101.012 -73.1763
156.005859 101.072 -74.5530
156.372070 101.136 -75.9358
156.738281 101.205 -77.3748
157.104492 101.275 -78.9187
157.470703 101.338 -80.5952
157.836914 101.386 -82.4009
158.203125 101.412 -84.3069
158.569336 101.413 -86.2725
158.935547 101.387 -88.2598
159.301758 101.336 -90.2417
159.667969 101.259 -92.1973
160.034180 101.156 -94.0996
160.400391 101.024 -95.9067
160.766602 100.867 -97.5654
161.132812 100.691 -99.0239
161.499023 100.504 -100.2517
161.865234 100.319 -101.2471
162.231445 100.143 -102.0342
162.597656 99.983 -102.6455
162.963867 99.842 -103.1091
163.330078 99.725 -103.4517
163.696289 99.638 -103.7080
164.062500 99.584 -103.9351
164.428711 99.565 -104.2068
164.794922 99.578 -104.5981
165.161133 99.614 -105.1670
165.527344 99.666 -105.9441
165.893555 99.722 -106.9385
166.259766 99.776 -108.1414
166.625977 99.821 -109.5334
166.992188 99.852 -111.0864
167.358398 99.866 -112.7695
167.724609 99.864 -114.5532
168.090820 99.845 -116.4185
168.457031 99.810 -118.3550
168.823242 99.760 -120.3567
169.189453 99.695 -122.4165
169.555664 99.615 -124.5281
169.921875 99.524 -126.6943
170.288086 99.421 -128.9370
170.654297 99.308 -131.2944
171.020508 99.176 -133.8054
171.386719 99.017 -136.4861
171.752930 98.817 -139.3120
172.119141 98.569 -142.2207
172.485352 98.268 -145.1299
172.851562 97.919 -147.9644
173.217773 97.528 -150.6772
173.583984 97.102 -153.2549
173.950195 96.648 -155.7075
174.316406 96.170 -158.0542
174.682617 95.669 -160.3137
175.048828 95.149 -162.5098
175.415039 94.614 -164.6895
175.781250 94.065 -166.9316
176.147461 93.498 -169.3472
176.513672 92.904 -172.0586
176.879883 92.265 -175.1814
177.246094 91.558 -178.8179
177.612305 90.761 176.9248
177.978516 89.852 171.8970
178.344727 88.813 165.8496
178.710938 87.627 158.3472
179.077148 86.299 148.6528
179.443359 84.893 135.6028
179.809570 83.638 117.7788
180.175781 83.033 94.9573
180.541992 83.552 70.5422
180.908203 85.001 49.3962
181.274414 86.798 33.0039
181.640625 88.568 20.3101
182.006836 90.179 10.0193
182.373047 91.604 1.2402
182.739258 92.853 -6.5698
183.105469 93.944 -13.7383
183.471680 94.898 -20.4683
183.837891 95.729 -26.8928
184.204102 96.452 -33.1069
184.570312 97.076 -39.1812
184.936523 97.609 -45.1719
185.302734 98.055 -51.1201
185.668945 98.412 -57.0505
186.035156 98.680 -62.9683
186.401367 98.856 -68.8594
186.767578 98.938 -74.6912
187.133789 98.924 -80.4177
187.500000 98.814 -85.9854
187.866211 98.609 -91.3362
188.232422 98.314 -96.4148
188.598633 97.930 -101.1697
188.964844 97.462 -105.5535
189.331055 96.915 -109.5239
189.697266 96.289 -113.0388
190.063477 95.586 -116.0503
190.429688 94.805 -118.4949
190.795898 93.944 -120.2800
191.162109 93.001 -121.2671
191.528320 91.981 -121.2573
191.894531 90.896 -119.9812
192.260742 89.782 -117.1118
192.626953 88.706 -112.3328
192.993164 87.779 -105.5059
193.359375 87.139 -96.9302
193.725586 86.891 -87.4885
194.091797 87.043 -78.3674
194.458008 87.503 -70.4849
194.824219 88.141 -64.1921
195.190430 88.852 -59.4019
195.556641 89.571 -55.8401
195.922852 90.264 -53.2114
196.289062 90.920 -51.2698
196.655273 91.537 -49.8318
197.021484 92.120 -48.7708
197.387695 92.672 -48.0022
197.753906 93.200 -47.4727
198.120117 93.707 -47.1499
198.486328 94.197 -47.0178
198.852539 94.672 -47.0718
199.218750 95.132 -47.3083
199.584961 95.575 -47.7219
199.951172 96.000 -48.3000
200.317383 96.407 -49.0264
200.683594 96.794 -49.8875
201.049805 97.162 -50.8752
201.416016 97.510 -51.9856
201.782227 97.836 -53.2136
202.148438 98.136 -54.5461
202.514648 98.408 -55.9612
202.880859 98.652 -57.4287
203.247070 98.865 -58.9170
203.613281 99.049 -60.3936
203.979492 99.204 -61.8262
204.345703 99.333 -63.1809
204.711914 99.439 -64.4236
205.078125 99.528 -65.5234
205.444336 99.605 -66.4622
205.810547 99.680 -67.2407
206.176758 99.759 -67.8765
206.542969 99.846 -68.3987
206.909180 99.944 -68.8376
207.275391 100.054 -69.2185
207.641602 100.177 -69.5649
208.007812 100.315 -69.9021
208.374023 100.466 -70.2590
208.740234 100.629 -70.6636
209.106445 100.800 -71.1353
209.472656 100.975 -71.6802
209.838867 101.152 -72.2942
210.205078 101.327 -72.9697
210.571289 101.501 -73.7002
210.937500 101.672 -74.4822
211.303711 101.839 -75.3113
211.669922 102.001 -76.1790
212.036133 102.159 -77.0742
212.402344 102.311 -77.9888
212.768555 102.461 -78.9211
213.134766 102.609 -79.8796
213.500977 102.755 -80.8767
213.867188 102.896 -81.9238
214.233398 103.030 -83.0229
214.599609 103.154 -84.1675
214.965820 103.265 -85.3416
215.332031 103.362 -86.5205
215.698242 103.443 -87.6753
216.064453 103.509 -88.7744
216.430664 103.565 -89.7876
216.796875 103.614 -90.6941
217.163086 103.665 -91.4885
217.529297 103.722 -92.1824
217.895508 103.791 -92.8047
218.261719 103.874 -93.3928
218.627930 103.971 -93.9836
218.994141 104.080 -94.6072
219.360352 104.199 -95.2832
219.726562 104.325 -96.0222
220.092773 104.454 -96.8320
220.458984 104.586 -97.7217
220.825195 104.717 -98.6985
221.191406 104.843 -99.7659
221.557617 104.959 -100.9141
221.923828 105.061 -102.1179
222.290039 105.149 -103.3459
222.656250 105.223 -104.5693
223.022461 105.285 -105.7754
223.388672 105.339 -106.9663
223.754883 105.381 -108.1475
224.121094 105.409 -109.3098
224.487305 105.421 -110.4170
224.853516 105.417 -111.4172
225.219727 105.404 -112.2649
225.585938 105.392 -112.9473
225.952148 105.390 -113.4939
226.318359 105.401 -113.9583
226.684570 105.422 -114.3804
227.050781 105.448 -114.7615
227.416992 105.475 -115.0632
227.783203 105.508 -115.2341
228.149414 105.557 -115.2483
228.515625 105.635 -115.1284
228.881836 105.751 -114.9390
229.248047 105.908 -114.7625
229.614258 106.103 -114.6704
229.980469 106.335 -114.7139
230.346680 106.598 -114.9355
230.712891 106.890 -115.3809
231.079102 107.206 -116.1030
231.445312 107.537 -117.1550
231.811523 107.872 -118.5754
232.177734 108.197 -120.3762
232.543945 108.497 -122.5393
232.910156 108.760 -125.0198
233.276367 108.976 -127.7517
233.642578 109.139 -130.6565
234.008789 109.245 -133.6504
234.375000 109.295 -136.6523
234.741211 109.292 -139.5911
235.107422 109.242 -142.4092
235.473633 109.150 -145.0630
235.839844 109.022 -147.5200
236.206055 108.865 -149.7546
236.572266 108.683 -151.7439
236.938477 108.483 -153.4656
237.304688 108.273 -154.8999
237.670898 108.061 -156.0334
238.037109 107.856 -156.8645
238.403320 107.668 -157.4099
238.769531 107.510 -157.7097
239.135742 107.390 -157.8291
239.501953 107.313 -157.8562
239.868164 107.279 -157.8901
240.234375 107.283 -158.0247
240.600586 107.315 -158.3323
240.966797 107.360 -158.8530
241.333008 107.405 -159.5879
241.699219 107.435 -160.5051
242.065430 107.441 -161.5444
242.431641 107.417 -162.6267
242.797852 107.359 -163.6621
243.164062 107.270 -164.5610
243.530273 107.159 -165.2397
243.896484 107.037 -165.6343
244.262695 106.918 -165.7080
244.628906 106.821 -165.4580
244.995117 106.760 -164.9221
245.361328 106.752 -164.1770
245.727539 106.806 -163.3320
246.093750 106.926 -162.5183
246.459961 107.110 -161.8708
246.826172 107.346 -161.5098
247.192383 107.619 -161.5200
247.558594 107.910 -161.9424
247.924805 108.200 -162.7727
248.291016 108.474 -163.9683
248.657227 108.719 -165.4622
249.023438 108.929 -167.1753
249.389648 109.100 -169.0256
249.755859 109.232 -170.9377
250.122070 109.329 -172.8459
250.488281 109.395 -174.6963
250.854492 109.437 -176.4497
251.220703 109.462 -178.0820
251.586914 109.476 -179.5811
251.953125 109.487 179.0537
252.319336 109.499 177.8152
252.685547 109.518 176.6929
253.051758 109.546 175.6746
253.417969 109.588 174.7468
253.784180 109.648 173.8943
254.150391 109.728 173.0962
254.516602 109.833 172.3250
254.882812 109.965 171.5466
255.249023 110.127 170.7222
255.615234 110.317 169.8108
255.981445 110.537 168.7715
256.347656 110.784 167.5630
256.713867 111.057 166.1411
257.080078 111.354 164.4580
257.446289 111.668 162.4644
257.812500 111.993 160.1140
258.178711 112.320 157.3701
258.544922 112.638 154.2117
258.911133 112.937 150.6333
259.277344 113.205 146.6433
259.643555 113.433 142.2622
260.009766 113.613 137.5161
260.375977 113.735 132.4382
260.742188 113.791 127.0686
261.108398 113.774 121.4558
261.474609 113.676 115.6577
261.840820 113.492 109.7417
262.207031 113.218 103.7808
262.573242 112.852 97.8503
262.939453 112.395 92.0247
263.305664 111.848 86.3711
263.671875 111.214 80.9500
264.038086 110.495 75.8157
264.404297 109.694 71.0166
264.770508 108.814 66.5999
265.136719 107.856 62.6123
265.502930 106.821 59.1021
265.869141 105.709 56.1199
266.235352 104.519 53.7239
266.601562 103.246 51.9919
266.967773 101.881 51.0447
267.333984 100.414 51.0786
267.700195 98.839 52.4141
268.066406 97.160 55.5518
268.432617 95.424 61.2227
268.798828 93.768 70.3074
269.165039 92.486 83.2368
269.531250 91.957 98.6492
269.897461 92.300 113.2024
270.263672 93.217 124.2749
270.629883 94.325 131.5408
270.996094 95.401 135.8464
271.362305 96.355 138.1194
271.728516 97.168 139.0544
272.094727 97.846 139.1133
272.460938 98.404 138.5857
272.827148 98.855 137.6506
273.193359 99.207 136.4290
273.559570 99.464 135.0200
273.925781 99.630 133.5256
274.291992 99.706 132.0576
274.658203 99.698 130.7334
275.024414 99.615 129.6665
275.390625 99.470 128.9587
275.756836 99.279 128.6907
276.123047 99.058 128.9187
276.489258 98.826 129.6746
276.855469 98.603 130.9648
277.221680 98.407 132.7749
277.587891 98.254 135.0723
277.954102 98.162 137.8115
278.320312 98.150 140.9268
278.686523 98.236 144.3149
279.052734 98.437 147.8174
279.418945 98.763 151.2141
279.785156 99.210 154.2556
280.151367 99.757 156.7175
280.517578 100.374 158.4502
280.883789 101.024 159.4004
281.250000 101.677 159.5984
281.616211 102.308 159.1287
281.982422 102.900 158.0996
282.348633 103.445 156.6226
282.714844 103.938 154.7981
283.081055 104.376 152.7122
283.447266 104.761 150.4382
283.813477 105.095 148.0393
284.179688 105.379 145.5706
284.545898 105.617 143.0830
284.912109 105.814 140.6194
285.278320 105.974 138.2131
285.644531 106.104 135.8877
286.010742 106.209 133.6553
286.376953 106.294 131.5188
286.743164 106.365 129.4746
287.109375 106.423 127.5139
287.475586 106.473 125.6248
287.841797 106.514 123.7947
288.208008 106.549 122.0151
288.574219 106.575 120.2832
288.940430 106.594 118.6045
289.306641 106.605 116.9910
289.672852 106.611 115.4551
290.039062 106.616 114.0024
290.405273 106.624 112.6289
290.771484 106.639 111.3181
291.137695 106.664 110.0457
291.503906 106.699 108.7849
291.870117 106.745 107.5098
292.236328 106.802 106.1987
292.602539 106.866 104.8342
292.968750 106.939 103.4009
293.334961 107.018 101.8823
293.701172 107.102 100.2590
294.067383 107.191 98.5046
294.433594 107.280 96.5876
294.799805 107.364 94.4800
295.166016 107.436 92.1633
295.532227 107.485 89.6370
295.898438 107.503 86.9197
296.264648 107.483 84.0454
296.630859 107.417 81.0562
296.997070 107.303 77.9946
297.363281 107.135 74.9038
297.729492 106.908 71.8289
298.095703 106.619 68.8225
298.461914 106.261 65.9553
298.828125 105.829 63.3184
299.194336 105.319 61.0283
299.560547 104.734 59.2297
299.926758 104.078 58.0950
