* Measurement data measured by REW V5.20.8
* Source: ASIO hdspfire, Analog 1 (1)
* Format: 4M Log Swept Sine, 1 sweep at -12.0 dBFS with no timing reference
* Dated: 13 juin 2022 14:18:53
* REW Settings:
*  C-weighting compensation: Off
*  Target level: 75.0 dB
* Note: ; 
* Measurement: on_0x1400_1_4 juin 13
* Smoothing: None
* Frequency Step: 0.36621094 Hz
* Start Frequency: 0.36621094 Hz
*
* Freq(Hz) SPL(dB) Phase(degrees)
0.366211 14.926 28.2571
0.732422 17.188 22.3609
1.098633 15.718 10.8483
1.464844 8.760 28.6199
1.831055 14.675 97.2325
2.197266 20.921 85.9489
2.563477 23.589 61.9940
2.929688 24.329 32.5495
3.295898 23.912 -2.4158
3.662109 23.057 -42.9305
4.028320 22.290 -86.0771
4.394531 21.194 -131.3077
4.760742 20.013 167.6206
5.126953 24.101 95.3992
5.493164 30.641 53.3311
5.859375 35.927 26.5570
6.225586 40.005 5.3334
6.591797 43.124 -12.9656
6.958008 45.473 -28.7697
7.324219 47.239 -41.7217
7.690430 48.681 -51.4373
8.056641 50.111 -58.3805
8.422852 51.726 -64.3190
8.789062 53.441 -71.1011
9.155273 55.018 -79.1039
9.521484 56.286 -87.2296
9.887695 57.262 -93.7405
10.253906 58.198 -97.2426
10.620117 59.502 -98.2770
10.986328 61.346 -99.8239
11.352539 63.435 -104.3571
11.718750 65.371 -111.8088
12.084961 66.933 -120.7429
12.451172 68.072 -129.5288
12.817383 68.863 -136.6824
13.183594 69.508 -141.1149
13.549805 70.318 -142.8283
13.916016 71.536 -143.5303
14.282227 73.115 -145.5602
14.648438 74.798 -150.0135
15.014648 76.360 -156.6008
15.380859 77.686 -164.5274
15.747070 78.741 -173.0153
16.113281 79.536 178.5911
16.479492 80.107 170.8530
16.845703 80.522 164.2358
17.211914 80.883 158.9925
17.578125 81.314 154.9452
17.944336 81.900 151.3877
18.310547 82.625 147.4131
18.676758 83.387 142.4908
19.042969 84.068 136.7283
19.409180 84.597 130.7037
19.775391 84.983 125.1403
20.141602 85.311 120.5564
20.507812 85.708 116.9105
20.874023 86.260 113.4901
21.240234 86.941 109.3600
21.606445 87.632 104.0349
21.972656 88.208 97.6958
22.338867 88.597 90.9469
22.705078 88.795 84.4962
23.071289 88.864 78.9037
23.437500 88.902 74.3730
23.803711 88.989 70.6513
24.169922 89.163 67.1917
24.536133 89.395 63.5291
24.902344 89.628 59.5316
25.268555 89.822 55.3386
25.634766 89.968 51.1442
26.000977 90.073 47.0463
26.367188 90.140 43.0579
26.733398 90.156 39.2376
27.099609 90.110 35.7968
27.465820 90.024 33.0622
27.832031 89.961 31.2648
28.198242 90.010 30.2705
28.564453 90.225 29.5237
28.930664 90.586 28.3888
29.296875 91.017 26.5845
29.663086 91.453 24.2623
30.029297 91.880 21.7458
30.395508 92.326 19.2297
30.761719 92.822 16.6468
31.127930 93.379 13.7676
31.494141 93.969 10.4175
31.860352 94.561 6.6065
32.226562 95.135 2.4879
32.592773 95.686 -1.7741
32.958984 96.227 -6.1064
33.325195 96.770 -10.5380
33.691406 97.311 -15.1306
34.057617 97.835 -19.8950
34.423828 98.327 -24.7570
34.790039 98.783 -29.5864
35.156250 99.208 -34.2582
35.522461 99.620 -38.7065
35.888672 100.037 -42.9467
36.254883 100.470 -47.0616
36.621094 100.921 -51.1617
36.987305 101.381 -55.3410
37.353516 101.836 -59.6443
37.719727 102.269 -64.0534
38.085938 102.669 -68.4931
38.452148 103.034 -72.8560
38.818359 103.370 -77.0414
39.184570 103.694 -80.9976
39.550781 104.024 -84.7475
39.916992 104.372 -88.3806
40.283203 104.739 -92.0092
40.649414 105.118 -95.7185
41.015625 105.495 -99.5385
41.381836 105.862 -103.4513
41.748047 106.212 -107.4158
42.114258 106.542 -111.3869
42.480469 106.854 -115.3209
42.846680 107.151 -119.1729
43.212891 107.442 -122.9023
43.579102 107.735 -126.4902
43.945312 108.041 -129.9603
44.311523 108.367 -133.3818
44.677734 108.717 -136.8438
45.043945 109.084 -140.4160
45.410156 109.462 -144.1271
45.776367 109.843 -147.9717
46.142578 110.226 -151.9426
46.508789 110.612 -156.0564
46.875000 110.999 -160.3521
47.241211 111.379 -164.8628
47.607422 111.741 -169.5875
47.973633 112.077 -174.4844
48.339844 112.385 -179.4941
48.706055 112.670 175.4215
49.072266 112.940 170.2515
49.438477 113.196 164.9373
49.804688 113.433 159.4077
50.170898 113.637 153.6223
50.537109 113.792 147.5994
50.903320 113.884 141.4136
51.269531 113.907 135.1681
51.635742 113.865 128.9589
52.001953 113.765 122.8475
52.368164 113.616 116.8535
52.734375 113.421 110.9672
53.100586 113.181 105.1763
53.466797 112.893 99.4897
53.833008 112.553 93.9458
54.199219 112.162 88.6021
54.565430 111.725 83.5156
54.931641 111.250 78.7258
55.297852 110.744 74.2499
55.664062 110.215 70.0920
56.030273 109.668 66.2590
56.396484 109.110 62.7650
56.762695 108.550 59.6191
57.128906 108.002 56.8008
57.495117 107.478 54.2395
57.861328 106.983 51.8221
58.227539 106.514 49.4286
58.593750 106.056 46.9779
58.959961 105.589 44.4543
59.326172 105.099 41.9019
59.692383 104.575 39.3961
60.058594 104.016 37.0149
60.424805 103.424 34.8221
60.791016 102.802 32.8693
61.157227 102.150 31.2092
61.523438 101.471 29.9069
61.889648 100.770 29.0375
62.255859 100.057 28.6702
62.622070 99.349 28.8473
62.988281 98.665 29.5729
63.354492 98.019 30.8196
63.720703 97.427 32.5496
64.086914 96.901 34.7255
64.453125 96.457 37.2931
64.819336 96.113 40.1431
65.185547 95.886 43.0861
65.551758 95.774 45.8821
65.917969 95.755 48.3171
66.284180 95.799 50.2764
66.650391 95.875 51.7594
67.016602 95.960 52.8427
67.382812 96.042 53.6265
67.749023 96.115 54.2028
68.115234 96.180 54.6504
68.481445 96.240 55.0436
68.847656 96.303 55.4471
69.213867 96.384 55.8855
69.580078 96.503 56.3027
69.946289 96.671 56.5488
70.312500 96.882 56.4272
70.678711 97.111 55.7810
71.044922 97.322 54.5670
71.411133 97.482 52.8722
71.777344 97.568 50.8777
72.143555 97.573 48.7994
72.509766 97.506 46.8311
72.875977 97.386 45.1008
73.242188 97.235 43.6523
73.608398 97.071 42.4546
73.974609 96.903 41.4401
74.340820 96.729 40.5537
74.707031 96.547 39.7859
75.073242 96.352 39.1741
75.439453 96.146 38.7747
75.805664 95.938 38.6310
76.171875 95.738 38.7544
76.538086 95.552 39.1368
76.904297 95.388 39.7759
77.270508 95.258 40.6804
77.636719 95.180 41.8320
78.002930 95.176 43.1223
78.369141 95.258 44.3324
78.735352 95.414 45.2043
79.101562 95.608 45.5736
79.467773 95.797 45.4568
79.833984 95.951 45.0342
80.200195 96.065 44.5485
80.566406 96.158 44.1808
80.932617 96.263 43.9606
81.298828 96.405 43.7581
81.665039 96.583 43.3748
82.031250 96.778 42.6718
82.397461 96.961 41.6450
82.763672 97.113 40.4094
83.129883 97.231 39.1237
83.496094 97.329 37.9083
83.862305 97.428 36.7911
84.228516 97.545 35.6976
84.594727 97.689 34.4880
84.960938 97.851 33.0214
85.327148 98.013 31.2115
85.693359 98.150 29.0579
86.059570 98.243 26.6405
86.425781 98.281 24.0948
86.791992 98.266 21.5717
87.158203 98.211 19.1907
87.524414 98.137 16.9972
87.890625 98.066 14.9403
88.256836 98.009 12.8918
88.623047 97.961 10.7042
88.989258 97.905 8.2775
89.355469 97.819 5.5967
89.721680 97.684 2.7271
90.087891 97.487 -0.2201
90.454102 97.228 -3.1251
90.820312 96.910 -5.8877
91.186523 96.544 -8.4408
91.552734 96.140 -10.7548
91.918945 95.709 -12.8394
92.285156 95.255 -14.7402
92.651367 94.779 -16.5237
93.017578 94.272 -18.2448
93.383789 93.717 -19.9081
93.750000 93.099 -21.4471
94.116211 92.406 -22.7393
94.482422 91.640 -23.6575
94.848633 90.804 -24.1298
95.214844 89.894 -24.1527
95.581055 88.881 -23.7064
95.947266 87.709 -22.5731
96.313477 86.310 -20.0955
96.679688 84.654 -14.9069
97.045898 82.884 -4.7767
97.412109 81.578 12.1758
97.778320 81.607 32.8772
98.144531 82.935 49.8063
98.510742 84.726 60.3843
98.876953 86.481 66.2719
99.243164 88.064 69.2063
99.609375 89.457 70.2451
99.975586 90.667 70.0432
100.341797 91.710 69.0616
100.708008 92.611 67.6365
101.074219 93.401 65.9863
101.440430 94.107 64.2179
101.806641 94.751 62.3533
102.172852 95.344 60.3765
102.539062 95.892 58.2771
102.905273 96.394 56.0720
103.271484 96.854 53.7950
103.637695 97.276 51.4753
104.003906 97.669 49.1162
104.370117 98.038 46.6924
104.736328 98.383 44.1670
105.102539 98.699 41.5171
105.468750 98.977 38.7539
105.834961 99.212 35.9250
106.201172 99.402 33.0997
106.567383 99.553 30.3438
106.933594 99.672 27.6968
107.299805 99.768 25.1620
107.666016 99.849 22.7139
108.032227 99.915 20.3188
108.398438 99.967 17.9554
108.764648 99.999 15.6235
109.130859 100.011 13.3401
109.497070 100.001 11.1278
109.863281 99.972 9.0071
110.229492 99.924 6.9948
110.595703 99.861 5.1088
110.961914 99.783 3.3690
111.328125 99.699 1.7897
111.694336 99.615 0.3673
112.060547 99.536 -0.9263
112.426758 99.466 -2.1377
112.792969 99.402 -3.3103
113.159180 99.338 -4.4640
113.525391 99.270 -5.5854
113.891602 99.195 -6.6383
114.257812 99.114 -7.5842
114.624023 99.032 -8.4022
114.990234 98.956 -9.0958
115.356445 98.889 -9.6852
115.722656 98.834 -10.1926
116.088867 98.789 -10.6332
116.455078 98.757 -11.0145
116.821289 98.738 -11.3462
117.187500 98.734 -11.6476
117.553711 98.746 -11.9468
117.919922 98.770 -12.2687
118.286133 98.802 -12.6217
118.652344 98.839 -12.9927
119.018555 98.879 -13.3553
119.384766 98.928 -13.6902
119.750977 98.989 -14.0034
120.117188 99.068 -14.3303
120.483398 99.164 -14.7216
120.849609 99.272 -15.2172
121.215820 99.383 -15.8268
121.582031 99.493 -16.5278
121.948242 99.597 -17.2806
122.314453 99.697 -18.0518
122.680664 99.796 -18.8260
123.046875 99.898 -19.6073
123.413086 100.004 -20.4054
123.779297 100.112 -21.2251
124.145508 100.224 -22.0630
124.511719 100.341 -22.9164
124.877930 100.466 -23.7942
125.244141 100.601 -24.7203
125.610352 100.745 -25.7257
125.976562 100.895 -26.8347
126.342773 101.046 -28.0560
126.708984 101.195 -29.3832
127.075195 101.340 -30.8042
127.441406 101.480 -32.3118
127.807617 101.614 -33.9058
128.173828 101.741 -35.5894
128.540039 101.859 -37.3615
128.906250 101.964 -39.2124
129.272461 102.056 -41.1265
129.638672 102.133 -43.0887
130.004883 102.196 -45.0889
130.371094 102.243 -47.1201
130.737305 102.275 -49.1737
131.103516 102.289 -51.2334
131.469727 102.284 -53.2767
131.835938 102.264 -55.2809
132.202148 102.229 -57.2325
132.568359 102.183 -59.1306
132.934570 102.127 -60.9821
133.300781 102.060 -62.7906
133.666992 101.980 -64.5466
134.033203 101.886 -66.2247
134.399414 101.780 -67.7921
134.765625 101.665 -69.2223
135.131836 101.550 -70.5055
135.498047 101.438 -71.6517
135.864258 101.335 -72.6837
136.230469 101.243 -73.6255
136.596680 101.160 -74.4933
136.962891 101.088 -75.2932
137.329102 101.027 -76.0264
137.695312 100.980 -76.6945
138.061523 100.949 -77.3080
138.427734 100.939 -77.8879
138.793945 100.950 -78.4657
139.160156 100.984 -79.0768
139.526367 101.038 -79.7556
139.892578 101.109 -80.5278
140.258789 101.192 -81.4075
140.625000 101.283 -82.3972
140.991211 101.378 -83.4907
141.357422 101.476 -84.6765
141.723633 101.574 -85.9407
142.089844 101.674 -87.2719
142.456055 101.775 -88.6631
142.822266 101.880 -90.1165
143.188477 101.990 -91.6443
143.554688 102.106 -93.2659
143.920898 102.226 -95.0016
144.287109 102.346 -96.8646
144.653320 102.464 -98.8580
145.019531 102.577 -100.9755
145.385742 102.682 -103.2081
145.751953 102.780 -105.5514
146.118164 102.870 -108.0061
146.484375 102.948 -110.5752
146.850586 103.013 -113.2556
147.216797 103.059 -116.0308
147.583008 103.085 -118.8702
147.949219 103.091 -121.7367
148.315430 103.079 -124.5975
148.681641 103.055 -127.4363
149.047852 103.023 -130.2578
149.414062 102.988 -133.0836
149.780273 102.948 -135.9395
150.146484 102.902 -138.8420
150.512695 102.846 -141.7906
150.878906 102.779 -144.7682
151.245117 102.701 -147.7504
151.611328 102.614 -150.7161
151.977539 102.522 -153.6570
152.343750 102.430 -156.5789
152.709961 102.340 -159.4980
153.076172 102.255 -162.4351
153.442383 102.174 -165.4083
153.808594 102.098 -168.4315
154.174805 102.025 -171.5144
154.541016 101.955 -174.6655
154.907227 101.890 -177.8943
155.273438 101.828 178.7885
155.639648 101.769 175.3717
156.005859 101.712 171.8481
156.372070 101.655 168.2158
156.738281 101.599 164.4781
157.104492 101.542 160.6415
157.470703 101.488 156.7085
157.836914 101.437 152.6741
158.203125 101.391 148.5238
158.569336 101.351 144.2382
158.935547 101.315 139.8005
159.301758 101.279 135.2041
159.667969 101.241 130.4552
160.034180 101.199 125.5715
160.400391 101.152 120.5753
160.766602 101.100 115.4884
161.132812 101.046 110.3278
161.499023 100.990 105.1072
161.865234 100.935 99.8387
162.231445 100.880 94.5365
162.597656 100.827 89.2172
162.963867 100.778 83.8999
163.330078 100.734 78.6033
163.696289 100.699 73.3422
164.062500 100.675 68.1245
164.428711 100.666 62.9492
164.794922 100.674 57.8066
165.161133 100.699 52.6812
165.527344 100.740 47.5571
165.893555 100.794 42.4241
166.259766 100.858 37.2789
166.625977 100.929 32.1244
166.992188 101.004 26.9647
167.358398 101.082 21.8013
167.724609 101.159 16.6324
168.090820 101.233 11.4575
168.457031 101.299 6.2810
168.823242 101.354 1.1161
169.189453 101.395 -4.0195
169.555664 101.422 -9.1086
169.921875 101.434 -14.1410
170.288086 101.431 -19.1147
170.654297 101.413 -24.0325
171.020508 101.377 -28.8931
171.386719 101.320 -33.6858
171.752930 101.241 -38.3912
172.119141 101.139 -42.9849
172.485352 101.016 -47.4462
172.851562 100.875 -51.7631
173.217773 100.717 -55.9316
173.583984 100.543 -59.9500
173.950195 100.355 -63.8135
174.316406 100.154 -67.5122
174.682617 99.942 -71.0355
175.048828 99.724 -74.3805
175.415039 99.504 -77.5582
175.781250 99.287 -80.5956
176.147461 99.073 -83.5291
176.513672 98.862 -86.3967
176.879883 98.650 -89.2284
177.246094 98.433 -92.0428
177.612305 98.207 -94.8461
177.978516 97.967 -97.6346
178.344727 97.708 -100.3960
178.710938 97.428 -103.1105
179.077148 97.125 -105.7535
179.443359 96.797 -108.2985
179.809570 96.446 -110.7222
180.175781 96.072 -113.0103
180.541992 95.677 -115.1573
180.908203 95.259 -117.1619
181.274414 94.813 -119.0129
181.640625 94.336 -120.6744
182.006836 93.821 -122.0752
182.373047 93.270 -123.1113
182.739258 92.690 -123.6659
183.105469 92.101 -123.6420
183.471680 91.526 -123.0007
183.837891 90.992 -121.7839
184.204102 90.519 -120.1031
184.570312 90.115 -118.0994
184.936523 89.779 -115.8944
185.302734 89.503 -113.5624
185.668945 89.282 -111.1292
186.035156 89.112 -108.5872
186.401367 88.999 -105.9178
186.767578 88.954 -103.1227
187.133789 88.995 -100.2661
187.500000 89.137 -97.5073
187.866211 89.383 -95.0868
188.232422 89.715 -93.2535
188.598633 90.098 -92.1760
188.964844 90.490 -91.8969
189.331055 90.855 -92.3474
189.697266 91.165 -93.3954
190.063477 91.405 -94.8892
190.429688 91.567 -96.6827
190.795898 91.644 -98.6423
191.162109 91.638 -100.6437
191.528320 91.548 -102.5660
191.894531 91.377 -104.2910
192.260742 91.130 -105.6991
192.626953 90.814 -106.6646
192.993164 90.439 -107.0465
193.359375 90.024 -106.6854
193.725586 89.598 -105.4198
194.091797 89.208 -103.1394
194.458008 88.913 -99.8719
194.824219 88.774 -95.8551
195.190430 88.826 -91.5143
195.556641 89.070 -87.3282
195.922852 89.477 -83.6786
196.289062 90.004 -80.7924
196.655273 90.608 -78.7705
197.021484 91.250 -77.6302
197.387695 91.897 -77.3263
197.753906 92.520 -77.7594
198.120117 93.101 -78.7952
198.486328 93.630 -80.2924
198.852539 94.106 -82.1306
199.218750 94.532 -84.2245
199.584961 94.911 -86.5203
199.951172 95.244 -88.9808
200.317383 95.531 -91.5686
200.683594 95.774 -94.2390
201.049805 95.973 -96.9447
201.416016 96.133 -99.6454
201.782227 96.259 -102.3146
202.148438 96.355 -104.9390
202.514648 96.424 -107.5096
202.880859 96.470 -110.0143
203.247070 96.496 -112.4364
203.613281 96.507 -114.7633
203.979492 96.509 -116.9960
204.345703 96.510 -119.1549
204.711914 96.512 -121.2751
205.078125 96.518 -123.3965
205.444336 96.527 -125.5544
205.810547 96.539 -127.7797
206.176758 96.550 -130.1024
206.542969 96.559 -132.5552
206.909180 96.560 -135.1692
207.275391 96.546 -137.9639
207.641602 96.510 -140.9387
208.007812 96.444 -144.0729
208.374023 96.344 -147.3341
208.740234 96.208 -150.6908
209.106445 96.036 -154.1227
209.472656 95.830 -157.6237
209.838867 95.588 -161.1991
210.205078 95.310 -164.8610
210.571289 94.994 -168.6256
210.937500 94.636 -172.5170
211.303711 94.233 -176.5670
211.669922 93.776 179.1821
212.036133 93.255 174.6825
212.402344 92.656 169.8835
212.768555 91.961 164.7313
213.134766 91.149 159.1580
213.500977 90.193 153.0587
213.867188 89.061 146.2565
214.233398 87.704 138.4381
214.599609 86.061 129.0286
214.965820 84.054 116.8972
215.332031 81.659 99.6842
215.698242 79.248 73.0242
216.064453 78.361 35.7546
216.430664 79.931 1.7690
216.796875 82.278 -20.7450
217.163086 84.364 -35.7671
217.529297 86.048 -46.8906
217.895508 87.394 -55.8933
218.261719 88.474 -63.6635
218.627930 89.340 -70.6865
218.994141 90.025 -77.2388
219.360352 90.547 -83.4656
219.726562 90.919 -89.4248
220.092773 91.153 -95.1230
220.458984 91.260 -100.5537
220.825195 91.252 -105.7266
221.191406 91.135 -110.6775
221.557617 90.908 -115.4578
221.923828 90.558 -120.1064
222.290039 90.061 -124.6187
222.656250 89.386 -128.9272
223.022461 88.489 -132.8901
223.388672 87.309 -136.2678
223.754883 85.749 -138.6177
224.121094 83.639 -138.9438
224.487305 80.689 -134.4429
224.853516 76.787 -115.6045
225.219727 75.662 -69.0034
225.585938 79.889 -38.7572
225.952148 83.804 -30.4733
226.318359 86.745 -29.5605
226.684570 89.037 -31.4651
227.050781 90.903 -34.7411
227.416992 92.465 -38.8561
227.783203 93.791 -43.5793
228.149414 94.913 -48.7655
228.515625 95.851 -54.2719
228.881836 96.615 -59.9393
229.248047 97.222 -65.6012
229.614258 97.688 -71.1038
229.980469 98.038 -76.3262
230.346680 98.296 -81.1963
230.712891 98.486 -85.6938
231.079102 98.630 -89.8472
231.445312 98.742 -93.7168
231.811523 98.829 -97.3718
232.177734 98.894 -100.8708
232.543945 98.935 -104.2461
232.910156 98.948 -107.4993
233.276367 98.933 -110.6101
233.642578 98.891 -113.5493
234.008789 98.828 -116.2942
234.375000 98.749 -118.8391
234.741211 98.658 -121.1926
235.107422 98.559 -123.3667
235.473633 98.453 -125.3633
235.839844 98.341 -127.1687
236.206055 98.228 -128.7603
236.572266 98.121 -130.1211
236.938477 98.033 -131.2563
237.304688 97.973 -132.1992
237.670898 97.953 -133.0088
238.037109 97.977 -133.7644
238.403320 98.052 -134.5581
238.769531 98.177 -135.4927
239.135742 98.348 -136.6733
239.501953 98.558 -138.1995
239.868164 98.793 -140.1511
240.234375 99.039 -142.5830
240.600586 99.280 -145.5244
240.966797 99.500 -148.9810
241.333008 99.685 -152.9390
241.699219 99.821 -157.3677
242.065430 99.895 -162.2217
242.431641 99.899 -167.4453
242.797852 99.826 -172.9790
243.164062 99.674 -178.7695
243.530273 99.445 175.2197
243.896484 99.139 169.0012
244.262695 98.762 162.5574
244.628906 98.318 155.8369
244.995117 97.810 148.7546
245.361328 97.242 141.1875
245.727539 96.618 132.9736
246.093750 95.946 123.9084
246.459961 95.241 113.7466
246.826172 94.530 102.2212
247.192383 93.863 89.0996
247.558594 93.314 74.3032
247.924805 92.975 58.0757
248.291016 92.920 41.0837
248.657227 93.160 24.2715
249.023438 93.634 8.4893
249.389648 94.247 -5.7798
249.755859 94.907 -18.4192
250.122070 95.557 -29.5315
250.488281 96.163 -39.3003
250.854492 96.714 -47.9211
251.220703 97.209 -55.5720
251.586914 97.654 -62.4092
251.953125 98.056 -68.5674
252.319336 98.420 -74.1616
252.685547 98.753 -79.2903
253.051758 99.059 -84.0332
253.417969 99.338 -88.4553
253.784180 99.594 -92.6052
254.150391 99.827 -96.5215
254.516602 100.039 -100.2380
254.882812 100.232 -103.7878
255.249023 100.408 -107.2073
255.615234 100.564 -110.5325
255.981445 100.700 -113.7964
256.347656 100.812 -117.0239
256.713867 100.897 -120.2322
257.080078 100.949 -123.4329
257.446289 100.965 -126.6331
257.812500 100.938 -129.8342
258.178711 100.860 -133.0237
258.544922 100.720 -136.1685
258.911133 100.508 -139.2061
259.277344 100.215 -142.0391
259.643555 99.830 -144.5320
260.009766 99.349 -146.4973
260.375977 98.768 -147.6721
260.742188 98.096 -147.6777
261.108398 97.374 -146.0015
261.474609 96.704 -142.0891
261.840820 96.281 -135.7551
262.207031 96.340 -127.8938
262.573242 96.969 -120.5449
262.939453 98.010 -115.5479
263.305664 99.205 -113.4399
263.671875 100.366 -113.7942
264.038086 101.398 -115.9172
264.404297 102.269 -119.1936
264.770508 102.979 -123.1611
265.136719 103.541 -127.4939
265.502930 103.975 -131.9702
265.869141 104.298 -136.4417
266.235352 104.528 -140.8125
266.601562 104.682 -145.0225
266.967773 104.774 -149.0364
267.333984 104.817 -152.8396
267.700195 104.822 -156.4336
268.066406 104.797 -159.8337
268.432617 104.750 -163.0637
268.798828 104.685 -166.1506
269.165039 104.605 -169.1191
269.531250 104.509 -171.9880
269.897461 104.400 -174.7717
270.263672 104.275 -177.4780
270.629883 104.136 179.8865
270.996094 103.980 177.3203
271.362305 103.808 174.8237
271.728516 103.619 172.3989
272.094727 103.412 170.0491
272.460938 103.186 167.7739
272.827148 102.941 165.5718
273.193359 102.671 163.4414
273.559570 102.373 161.3914
273.925781 102.039 159.4485
274.291992 101.661 157.6682
274.658203 101.234 156.1436
275.024414 100.756 155.0037
275.390625 100.235 154.4089
275.756836 99.690 154.5266
276.123047 99.155 155.4885
276.489258 98.679 157.3228
276.855469 98.314 159.8865
277.221680 98.098 162.8499
277.587891 98.041 165.7786
277.954102 98.115 168.2859
278.320312 98.270 170.1511
278.686523 98.456 171.3435
279.052734 98.632 171.9709
279.418945 98.772 172.2100
279.785156 98.866 172.2566
280.151367 98.913 172.2937
280.517578 98.923 172.4771
280.883789 98.913 172.9248
281.250000 98.902 173.7102
281.616211 98.914 174.8567
281.982422 98.974 176.3308
282.348633 99.102 178.0408
282.714844 99.314 179.8428
283.081055 99.617 -178.4375
283.447266 100.008 -176.9773
283.813477 100.472 -175.9292
284.179688 100.994 -175.4014
284.545898 101.551 -175.4568
284.912109 102.122 -176.1172
285.278320 102.690 -177.3711
285.644531 103.236 -179.1782
286.010742 103.747 178.5237
286.376953 104.210 175.8132
286.743164 104.620 172.7793
287.109375 104.974 169.5110
287.475586 105.271 166.0911
287.841797 105.516 162.5901
288.208008 105.715 159.0637
288.574219 105.873 155.5503
288.940430 105.999 152.0708
289.306641 106.098 148.6309
289.672852 106.177 145.2200
290.039062 106.241 141.8159
290.405273 106.291 138.3894
290.771484 106.327 134.9114
291.137695 106.346 131.3586
291.503906 106.346 127.7195
291.870117 106.322 123.9956
292.236328 106.271 120.1960
292.602539 106.192 116.3354
292.968750 106.084 112.4246
293.334961 105.946 108.4680
293.701172 105.779 104.4639
294.067383 105.580 100.4045
294.433594 105.346 96.2852
294.799805 105.072 92.1050
295.166016 104.753 87.8755
295.532227 104.383 83.6179
295.898438 103.955 79.3652
296.264648 103.466 75.1616
296.630859 102.910 71.0603
296.997070 102.282 67.1287
297.363281 101.581 63.4478
297.729492 100.803 60.1191
298.095703 99.952 57.2688
298.461914 99.033 55.0508
298.828125 98.062 53.6458
299.194336 97.071 53.2388
299.560547 96.109 53.9644
299.926758 95.247 55.8042
