* Measurement data measured by REW V5.20.8
* Source: ASIO hdspfire, Analog 1 (1)
* Format: 4M Log Swept Sine, 1 sweep at -12.0 dBFS with no timing reference
* Dated: 13 juin 2022 13:44:00
* REW Settings:
*  C-weighting compensation: Off
*  Target level: 75.0 dB
* Note: ; 
* Measurement: on_0x1400_4_0 juin 13
* Smoothing: None
* Frequency Step: 0.36621094 Hz
* Start Frequency: 0.36621094 Hz
*
* Freq(Hz) SPL(dB) Phase(degrees)
0.366211 25.382 31.3846
0.732422 27.930 39.3751
1.098633 28.574 38.0947
1.464844 26.797 36.4549
1.831055 20.952 55.3879
2.197266 23.800 136.0643
2.563477 31.087 142.8047
2.929688 34.660 132.4130
3.295898 35.934 117.5834
3.662109 35.015 100.9080
4.028320 30.725 85.4883
4.394531 16.552 139.2132
4.760742 30.889 -164.3576
5.126953 35.465 169.9232
5.493164 36.762 130.0018
5.859375 38.082 73.3820
6.225586 41.773 19.4277
6.591797 45.423 -18.4489
6.958008 47.660 -46.4337
7.324219 48.313 -67.4443
7.690430 47.365 -78.4632
8.056641 46.039 -68.3819
8.422852 48.702 -48.2659
8.789062 52.948 -49.4460
9.155273 55.978 -62.1013
9.521484 57.744 -77.8060
9.887695 58.463 -92.6529
10.253906 58.397 -103.4608
10.620117 58.133 -107.2109
10.986328 58.722 -105.2709
11.352539 60.409 -105.8305
11.718750 62.209 -112.5774
12.084961 63.402 -122.7170
12.451172 63.773 -132.1957
12.817383 63.465 -136.3115
13.183594 63.413 -130.6801
13.549805 65.165 -121.2383
13.916016 68.115 -120.5198
14.282227 70.803 -128.4322
14.648438 72.767 -140.7225
15.014648 73.963 -154.6559
15.380859 74.402 -168.4911
15.747070 74.077 179.4501
16.113281 73.007 171.7400
16.479492 71.550 172.7967
16.845703 71.164 -175.4190
17.211914 72.934 -165.5578
17.578125 75.282 -166.6068
17.944336 77.050 -174.7033
18.310547 78.007 174.2969
18.676758 78.127 162.9793
19.042969 77.381 153.6415
19.409180 75.765 149.7589
19.775391 73.747 157.7015
20.141602 73.488 179.4224
20.507812 75.936 -164.2158
20.874023 78.797 -159.7084
21.240234 81.233 -160.7919
21.606445 83.315 -164.1136
21.972656 85.168 -168.7301
22.338867 86.823 -174.4181
22.705078 88.259 179.1327
23.071289 89.469 172.4761
23.437500 90.497 166.2406
23.803711 91.426 160.8468
24.169922 92.387 156.2246
24.536133 93.467 151.7468
24.902344 94.665 146.5820
25.268555 95.897 140.1996
25.634766 97.066 132.5475
26.000977 98.105 123.8870
26.367188 98.977 114.5765
26.733398 99.673 104.9556
27.099609 100.196 95.3237
27.465820 100.556 85.9656
27.832031 100.773 77.1805
28.198242 100.888 69.2715
28.564453 100.971 62.4543
28.930664 101.116 56.6787
29.296875 101.410 51.4740
29.663086 101.877 46.0508
30.029297 102.459 39.7017
30.395508 103.048 32.1459
30.761719 103.549 23.5483
31.127930 103.898 14.3347
31.494141 104.078 5.0100
31.860352 104.106 -3.9622
32.226562 104.027 -12.2460
32.592773 103.894 -19.7026
32.958984 103.759 -26.4160
33.325195 103.652 -32.6200
33.691406 103.568 -38.5375
34.057617 103.485 -44.2355
34.423828 103.383 -49.6000
34.790039 103.272 -54.4425
35.156250 103.186 -58.6693
35.522461 103.165 -62.4061
35.888672 103.226 -65.9664
36.254883 103.343 -69.6501
36.621094 103.469 -73.5347
36.987305 103.566 -77.4340
37.353516 103.635 -81.0403
37.719727 103.717 -84.1591
38.085938 103.873 -86.9108
38.452148 104.131 -89.7341
38.818359 104.462 -93.1245
39.184570 104.789 -97.3147
39.550781 105.034 -102.1650
39.916992 105.147 -107.2709
40.283203 105.124 -112.1372
40.649414 104.999 -116.3394
41.015625 104.837 -119.6572
41.381836 104.709 -122.1551
41.748047 104.662 -124.1445
42.114258 104.703 -126.0151
42.480469 104.807 -128.0514
42.846680 104.937 -130.3622
43.212891 105.067 -132.9214
43.579102 105.171 -135.6317
43.945312 105.237 -138.3600
44.311523 105.262 -140.9557
44.677734 105.257 -143.2786
45.043945 105.245 -145.2426
45.410156 105.249 -146.8533
45.776367 105.287 -148.1983
46.142578 105.363 -149.3897
46.508789 105.476 -150.5042
46.875000 105.621 -151.5751
47.241211 105.802 -152.6330
47.607422 106.017 -153.7405
47.973633 106.260 -154.9692
48.339844 106.517 -156.3392
48.706055 106.778 -157.7868
49.072266 107.048 -159.2128
49.438477 107.346 -160.5873
49.804688 107.697 -162.0317
50.170898 108.104 -163.7958
50.537109 108.543 -166.1227
50.903320 108.970 -169.1118
51.269531 109.340 -172.6795
51.635742 109.625 -176.6182
52.001953 109.818 179.3113
52.368164 109.927 175.3057
52.734375 109.969 171.4869
53.100586 109.960 167.9073
53.466797 109.914 164.5800
53.833008 109.840 161.5080
54.199219 109.749 158.6907
54.565430 109.648 156.1121
54.931641 109.546 153.7333
55.297852 109.445 151.5059
55.664062 109.341 149.4062
56.030273 109.231 147.4589
56.396484 109.119 145.7221
56.762695 109.017 144.2375
57.128906 108.946 142.9758
57.495117 108.918 141.8217
57.861328 108.933 140.6211
58.227539 108.980 139.2581
58.593750 109.037 137.7038
58.959961 109.088 136.0071
59.326172 109.126 134.2480
59.692383 109.152 132.4908
60.058594 109.173 130.7664
60.424805 109.193 129.0806
60.791016 109.216 127.4325
61.157227 109.243 125.8205
61.523438 109.278 124.2359
61.889648 109.320 122.6559
62.255859 109.368 121.0504
62.622070 109.419 119.4023
62.988281 109.468 117.7227
63.354492 109.514 116.0445
63.720703 109.563 114.3969
64.086914 109.621 112.7769
64.453125 109.692 111.1425
64.819336 109.776 109.4357
65.185547 109.867 107.6187
65.551758 109.957 105.6956
65.917969 110.041 103.7036
66.284180 110.121 101.6792
66.650391 110.202 99.6265
67.016602 110.290 97.5086
67.382812 110.381 95.2704
67.749023 110.468 92.8750
68.115234 110.540 90.3278
68.481445 110.589 87.6739
68.847656 110.614 84.9725
69.213867 110.616 82.2684
69.580078 110.601 79.5771
69.946289 110.569 76.8923
70.312500 110.521 74.2062
70.678711 110.453 71.5283
71.044922 110.363 68.8878
71.411133 110.253 66.3206
71.777344 110.127 63.8492
72.143555 109.989 61.4747
72.509766 109.841 59.1830
72.875977 109.684 56.9635
73.242188 109.514 54.8241
73.608398 109.332 52.7890
73.974609 109.142 50.8829
74.340820 108.947 49.1132
74.707031 108.754 47.4659
75.073242 108.564 45.9196
75.439453 108.374 44.4678
75.805664 108.184 43.1270
76.171875 107.996 41.9226
76.538086 107.817 40.8618
76.904297 107.654 39.9131
77.270508 107.510 39.0154
77.636719 107.383 38.1129
78.002930 107.265 37.1886
78.369141 107.150 36.2711
78.735352 107.038 35.4073
79.101562 106.937 34.6206
79.467773 106.853 33.8856
79.833984 106.790 33.1387
80.200195 106.743 32.3160
80.566406 106.702 31.3907
80.932617 106.659 30.3820
81.298828 106.611 29.3338
81.665039 106.559 28.2827
82.031250 106.507 27.2374
82.397461 106.457 26.1826
82.763672 106.409 25.0993
83.129883 106.357 23.9852
83.496094 106.298 22.8588
83.862305 106.233 21.7491
84.228516 106.161 20.6801
84.594727 106.089 19.6616
84.960938 106.017 18.6919
85.327148 105.950 17.7665
85.693359 105.887 16.8827
86.059570 105.831 16.0369
86.425781 105.785 15.2181
86.791992 105.751 14.4037
87.158203 105.729 13.5654
87.524414 105.716 12.6794
87.890625 105.709 11.7347
88.256836 105.705 10.7333
88.623047 105.702 9.6835
88.989258 105.700 8.5909
89.355469 105.700 7.4568
89.721680 105.699 6.2806
90.087891 105.697 5.0645
90.454102 105.694 3.8130
90.820312 105.691 2.5296
91.186523 105.687 1.2108
91.552734 105.683 -0.1524
91.918945 105.677 -1.5679
92.285156 105.665 -3.0340
92.651367 105.647 -4.5373
93.017578 105.624 -6.0606
93.383789 105.597 -7.5958
93.750000 105.570 -9.1533
94.116211 105.543 -10.7604
94.482422 105.516 -12.4460
94.848633 105.481 -14.2233
95.214844 105.431 -16.0784
95.581055 105.362 -17.9745
95.947266 105.274 -19.8658
96.313477 105.168 -21.7154
96.679688 105.051 -23.5054
97.045898 104.926 -25.2366
97.412109 104.797 -26.9201
97.778320 104.665 -28.5665
98.144531 104.530 -30.1814
98.510742 104.395 -31.7685
98.876953 104.259 -33.3372
99.243164 104.126 -34.9070
99.609375 103.993 -36.5060
99.975586 103.858 -38.1603
100.341797 103.716 -39.8830
100.708008 103.559 -41.6653
101.074219 103.383 -43.4775
101.440430 103.186 -45.2753
101.806641 102.966 -47.0124
102.172852 102.729 -48.6526
102.539062 102.478 -50.1768
102.905273 102.218 -51.5824
103.271484 101.952 -52.8759
103.637695 101.680 -54.0608
104.003906 101.405 -55.1302
104.370117 101.127 -56.0689
104.736328 100.853 -56.8642
105.102539 100.590 -57.5226
105.468750 100.343 -58.0771
105.834961 100.116 -58.5807
106.201172 99.908 -59.0872
106.567383 99.713 -59.6314
106.933594 99.525 -60.2225
107.299805 99.343 -60.8542
107.666016 99.163 -61.5206
108.032227 98.987 -62.2256
108.398438 98.812 -62.9796
108.764648 98.635 -63.7858
109.130859 98.451 -64.6304
109.497070 98.258 -65.4862
109.863281 98.057 -66.3246
110.229492 97.851 -67.1291
110.595703 97.642 -67.8988
110.961914 97.432 -68.6429
111.328125 97.223 -69.3732
111.694336 97.016 -70.1033
112.060547 96.812 -70.8525
112.426758 96.608 -71.6469
112.792969 96.402 -72.5092
113.159180 96.187 -73.4443
113.525391 95.959 -74.4339
113.891602 95.716 -75.4478
114.257812 95.459 -76.4670
114.624023 95.191 -77.4972
114.990234 94.909 -78.5572
115.356445 94.610 -79.6483
115.722656 94.287 -80.7320
116.088867 93.945 -81.7430
116.455078 93.594 -82.6422
116.821289 93.254 -83.4767
117.187500 92.933 -84.3945
117.553711 92.622 -85.5822
117.919922 92.297 -87.1631
118.286133 91.923 -89.1344
118.652344 91.478 -91.3884
119.018555 90.957 -93.8036
119.384766 90.369 -96.3471
119.750977 89.718 -99.1308
120.117188 88.990 -102.3848
120.483398 88.143 -106.3683
120.849609 87.111 -111.3005
121.215820 85.810 -117.3989
121.582031 84.146 -125.0710
121.948242 82.004 -135.3711
122.314453 79.290 -151.1218
122.680664 76.385 -179.1069
123.046875 75.756 137.8367
123.413086 78.425 103.2905
123.779297 81.460 83.7778
124.145508 83.917 71.5471
124.511719 85.836 62.7043
124.877930 87.351 55.7601
125.244141 88.575 50.0746
125.610352 89.594 45.2814
125.976562 90.468 41.0991
126.342773 91.229 37.3052
126.708984 91.893 33.7638
127.075195 92.465 30.4369
127.441406 92.955 27.3545
127.807617 93.381 24.5565
128.173828 93.763 22.0396
128.540039 94.122 19.7380
128.906250 94.465 17.5507
129.272461 94.794 15.3871
129.638672 95.101 13.2035
130.004883 95.381 11.0046
130.371094 95.633 8.8187
130.737305 95.859 6.6698
131.103516 96.062 4.5645
131.469727 96.246 2.4962
131.835938 96.412 0.4576
132.202148 96.559 -1.5522
132.568359 96.688 -3.5304
132.934570 96.801 -5.4769
133.300781 96.897 -7.3966
133.666992 96.975 -9.2946
134.033203 97.033 -11.1653
134.399414 97.068 -12.9860
134.765625 97.080 -14.7177
135.131836 97.071 -16.3157
135.498047 97.048 -17.7445
135.864258 97.019 -18.9919
136.230469 96.994 -20.0743
136.596680 96.978 -21.0328
136.962891 96.975 -21.9176
137.329102 96.982 -22.7697
137.695312 96.996 -23.6093
138.061523 97.014 -24.4395
138.427734 97.037 -25.2589
138.793945 97.065 -26.0782
139.160156 97.098 -26.9213
139.526367 97.132 -27.8103
139.892578 97.161 -28.7438
140.258789 97.179 -29.6857
140.625000 97.185 -30.5781
140.991211 97.185 -31.3726
141.357422 97.190 -32.0614
141.723633 97.209 -32.6874
142.089844 97.244 -33.3196
142.456055 97.288 -34.0145
142.822266 97.333 -34.7854
143.188477 97.372 -35.6034
143.554688 97.405 -36.4249
143.920898 97.436 -37.2219
144.287109 97.469 -37.9973
144.653320 97.509 -38.7775
145.019531 97.556 -39.5946
145.385742 97.606 -40.4735
145.751953 97.658 -41.4308
146.118164 97.708 -42.4794
146.484375 97.750 -43.6278
146.850586 97.778 -44.8690
147.216797 97.784 -46.1693
147.583008 97.765 -47.4680
147.949219 97.722 -48.6957
148.315430 97.663 -49.7998
148.681641 97.597 -50.7665
149.047852 97.532 -51.6193
149.414062 97.471 -52.3948
149.780273 97.409 -53.1115
150.146484 97.344 -53.7539
150.512695 97.279 -54.2845
150.878906 97.220 -54.6735
151.245117 97.177 -54.9258
151.611328 97.157 -55.0850
151.977539 97.164 -55.2115
152.343750 97.194 -55.3533
152.709961 97.245 -55.5312
153.076172 97.317 -55.7510
153.442383 97.410 -56.0238
153.808594 97.525 -56.3810
154.174805 97.662 -56.8667
154.541016 97.815 -57.5190
154.907227 97.979 -58.3549
155.273438 98.148 -59.3730
155.639648 98.320 -60.5697
156.005859 98.493 -61.9535
156.372070 98.665 -63.5457
156.738281 98.829 -65.3655
157.104492 98.975 -67.4102
157.470703 99.095 -69.6458
157.836914 99.185 -72.0137
158.203125 99.244 -74.4506
158.569336 99.277 -76.9115
158.935547 99.291 -79.3835
159.301758 99.290 -81.8842
159.667969 99.275 -84.4451
160.034180 99.241 -87.0908
160.400391 99.182 -89.8224
160.766602 99.092 -92.6127
161.132812 98.967 -95.4137
161.499023 98.806 -98.1692
161.865234 98.614 -100.8291
162.231445 98.396 -103.3579
162.597656 98.159 -105.7399
162.963867 97.910 -107.9771
163.330078 97.652 -110.0822
163.696289 97.389 -112.0712
164.062500 97.123 -113.9562
164.428711 96.855 -115.7430
164.794922 96.587 -117.4368
165.161133 96.322 -119.0476
165.527344 96.061 -120.5946
165.893555 95.806 -122.1018
166.259766 95.554 -123.5863
166.625977 95.302 -125.0476
166.992188 95.049 -126.4648
167.358398 94.794 -127.8047
167.724609 94.544 -129.0369
168.090820 94.307 -130.1493
168.457031 94.092 -131.1548
168.823242 93.908 -132.0895
169.189453 93.763 -133.0094
169.555664 93.660 -133.9861
169.921875 93.603 -135.1025
170.288086 93.588 -136.4445
170.654297 93.609 -138.0851
171.020508 93.659 -140.0743
171.386719 93.728 -142.4390
171.752930 93.812 -145.1954
172.119141 93.904 -148.3624
172.485352 94.000 -151.9657
172.851562 94.090 -156.0266
173.217773 94.165 -160.5441
173.583984 94.213 -165.4821
173.950195 94.226 -170.7705
174.316406 94.201 -176.3179
174.682617 94.139 177.9706
175.048828 94.048 172.1793
175.415039 93.934 166.3788
175.781250 93.808 160.6284
176.147461 93.677 154.9834
176.513672 93.551 149.4966
176.879883 93.440 144.2130
177.246094 93.356 139.1617
177.612305 93.308 134.3516
177.978516 93.303 129.7773
178.344727 93.344 125.4313
178.710938 93.435 121.3113
179.077148 93.579 117.4161
179.443359 93.779 113.7308
179.809570 94.040 110.2131
180.175781 94.364 106.7957
180.541992 94.746 103.4022
180.908203 95.178 99.9696
181.274414 95.651 96.4565
181.640625 96.156 92.8379
182.006836 96.686 89.0920
182.373047 97.234 85.1934
182.739258 97.794 81.1152
183.105469 98.355 76.8380
183.471680 98.909 72.3568
183.837891 99.447 67.6805
184.204102 99.963 62.8248
184.570312 100.453 57.8041
184.936523 100.913 52.6282
185.302734 101.337 47.3033
185.668945 101.722 41.8379
186.035156 102.060 36.2472
186.401367 102.347 30.5573
186.767578 102.578 24.8033
187.133789 102.749 19.0291
187.500000 102.858 13.2823
187.866211 102.904 7.6144
188.232422 102.888 2.0771
188.598633 102.812 -3.2786
188.964844 102.682 -8.4065
189.331055 102.501 -13.2676
189.697266 102.277 -17.8341
190.063477 102.016 -22.0889
190.429688 101.724 -26.0236
190.795898 101.406 -29.6334
191.162109 101.068 -32.9124
191.528320 100.713 -35.8503
191.894531 100.348 -38.4370
192.260742 99.980 -40.6674
192.626953 99.619 -42.5519
192.993164 99.274 -44.1226
193.359375 98.952 -45.4336
193.725586 98.659 -46.5530
194.091797 98.394 -47.5510
194.458008 98.154 -48.4886
194.824219 97.935 -49.4132
195.190430 97.732 -50.3612
195.556641 97.538 -51.3616
195.922852 97.345 -52.4360
196.289062 97.146 -53.5938
196.655273 96.928 -54.8209
197.021484 96.682 -56.0757
197.387695 96.402 -57.2904
197.753906 96.085 -58.3823
198.120117 95.731 -59.2679
198.486328 95.346 -59.8752
198.852539 94.938 -60.1473
199.218750 94.514 -60.0394
199.584961 94.084 -59.5109
199.951172 93.657 -58.5222
200.317383 93.247 -57.0389
200.683594 92.870 -55.0443
201.049805 92.549 -52.5555
201.416016 92.302 -49.6390
201.782227 92.150 -46.4185
202.148438 92.103 -43.0681
202.514648 92.162 -39.7847
202.880859 92.317 -36.7444
203.247070 92.546 -34.0647
203.613281 92.829 -31.7926
203.979492 93.150 -29.9231
204.345703 93.497 -28.4321
204.711914 93.864 -27.3015
205.078125 94.245 -26.5262
205.444336 94.637 -26.1072
205.810547 95.032 -26.0421
206.176758 95.426 -26.3264
206.542969 95.815 -26.9622
206.909180 96.196 -27.9668
207.275391 96.562 -29.3716
207.641602 96.902 -31.2069
208.007812 97.202 -33.4821
208.374023 97.443 -36.1710
208.740234 97.609 -39.2084
209.106445 97.686 -42.4968
209.472656 97.663 -45.9183
209.838867 97.533 -49.3435
210.205078 97.294 -52.6366
210.571289 96.944 -55.6541
210.937500 96.486 -58.2396
211.303711 95.924 -60.2194
211.669922 95.272 -61.3993
212.036133 94.549 -61.5687
212.402344 93.786 -60.5127
212.768555 93.033 -58.0404
213.134766 92.358 -54.0428
213.500977 91.848 -48.5984
213.867188 91.596 -42.0974
214.233398 91.658 -35.2670
214.599609 92.025 -28.9675
214.965820 92.622 -23.8618
215.332031 93.351 -20.2314
215.698242 94.122 -18.0359
216.064453 94.876 -17.0662
216.430664 95.577 -17.0676
216.796875 96.206 -17.8019
217.163086 96.759 -19.0696
217.529297 97.235 -20.7136
217.895508 97.639 -22.6177
218.261719 97.975 -24.6973
218.627930 98.248 -26.8900
218.994141 98.461 -29.1469
219.360352 98.618 -31.4249
219.726562 98.719 -33.6877
220.092773 98.769 -35.9064
220.458984 98.766 -38.0557
220.825195 98.707 -40.1019
221.191406 98.590 -41.9849
221.557617 98.409 -43.6028
221.923828 98.169 -44.8148
222.290039 97.882 -45.4636
222.656250 97.573 -45.4146
223.022461 97.276 -44.5959
223.388672 97.030 -43.0200
223.754883 96.872 -40.7805
224.121094 96.837 -38.0505
224.487305 96.955 -35.1008
224.853516 97.242 -32.3125
225.219727 97.681 -30.1176
225.585938 98.230 -28.8672
225.952148 98.825 -28.7216
226.318359 99.407 -29.6439
226.684570 99.933 -31.4758
227.050781 100.379 -34.0232
227.416992 100.729 -37.1104
227.783203 100.976 -40.5953
228.149414 101.113 -44.3552
228.515625 101.133 -48.2660
228.881836 101.030 -52.1844
229.248047 100.801 -55.9469
229.614258 100.450 -59.3794
229.980469 99.987 -62.3170
230.346680 99.428 -64.6210
230.712891 98.789 -66.1848
231.079102 98.087 -66.9203
231.445312 97.337 -66.7292
231.811523 96.558 -65.4808
232.177734 95.782 -63.0243
232.543945 95.059 -59.2557
232.910156 94.454 -54.2263
233.276367 94.028 -48.2128
233.642578 93.814 -41.6628
234.008789 93.808 -35.0291
234.375000 93.982 -28.6343
234.741211 94.303 -22.6561
235.107422 94.741 -17.1794
235.473633 95.269 -12.2310
235.839844 95.869 -7.7880
236.206055 96.529 -3.7983
236.572266 97.246 -0.2235
236.938477 98.026 2.9192
237.304688 98.871 5.5480
237.670898 99.771 7.5530
238.037109 100.709 8.8466
238.403320 101.664 9.3943
238.769531 102.614 9.2150
239.135742 103.542 8.3602
239.501953 104.436 6.8949
239.868164 105.287 4.8857
240.234375 106.086 2.3984
240.600586 106.829 -0.5015
240.966797 107.511 -3.7495
241.333008 108.130 -7.2822
241.699219 108.686 -11.0408
242.065430 109.177 -14.9702
242.431641 109.604 -19.0199
242.797852 109.969 -23.1418
243.164062 110.272 -27.2903
243.530273 110.517 -31.4209
243.896484 110.707 -35.4928
244.262695 110.845 -39.4685
244.628906 110.936 -43.3143
244.995117 110.984 -47.0011
245.361328 110.995 -50.5045
245.727539 110.975 -53.8069
246.093750 110.931 -56.8990
246.459961 110.868 -59.7822
246.826172 110.792 -62.4667
247.192383 110.706 -64.9685
247.558594 110.614 -67.3033
247.924805 110.516 -69.4835
248.291016 110.416 -71.5164
248.657227 110.314 -73.4076
249.023438 110.213 -75.1654
249.389648 110.116 -76.8038
249.755859 110.024 -78.3422
250.122070 109.939 -79.8025
250.488281 109.859 -81.2057
250.854492 109.786 -82.5703
251.220703 109.717 -83.9116
251.586914 109.651 -85.2428
251.953125 109.587 -86.5737
252.319336 109.522 -87.9113
252.685547 109.454 -89.2571
253.051758 109.382 -90.6086
253.417969 109.303 -91.9609
253.784180 109.217 -93.3088
254.150391 109.121 -94.6476
254.516602 109.016 -95.9731
254.882812 108.899 -97.2797
255.249023 108.769 -98.5583
255.615234 108.622 -99.7960
255.981445 108.457 -100.9752
256.347656 108.271 -102.0724
256.713867 108.061 -103.0560
257.080078 107.823 -103.8807
257.446289 107.555 -104.4827
257.812500 107.257 -104.7740
258.178711 106.933 -104.6429
258.544922 106.593 -103.9572
258.911133 106.259 -102.5803
259.277344 105.966 -100.4065
259.643555 105.762 -97.4205
260.009766 105.706 -93.7733
260.375977 105.844 -89.8276
260.742188 106.193 -86.1036
261.108398 106.726 -83.1227
261.474609 107.387 -81.2426
261.840820 108.106 -80.5953
262.207031 108.824 -81.1292
262.573242 109.497 -82.6881
262.939453 110.096 -85.0773
263.305664 110.604 -88.1006
263.671875 111.012 -91.5769
264.038086 111.318 -95.3444
264.404297 111.523 -99.2607
264.770508 111.631 -103.2013
265.136719 111.650 -107.0592
265.502930 111.587 -110.7444
265.869141 111.451 -114.1837
266.235352 111.252 -117.3190
266.601562 111.000 -120.1029
266.967773 110.704 -122.4944
267.333984 110.373 -124.4554
267.700195 110.018 -125.9491
268.066406 109.652 -126.9429
268.432617 109.288 -127.4156
268.798828 108.943 -127.3656
269.165039 108.635 -126.8159
269.531250 108.382 -125.8220
269.897461 108.199 -124.4742
270.263672 108.102 -122.9015
270.629883 108.096 -121.2648
270.996094 108.180 -119.7400
271.362305 108.343 -118.4877
271.728516 108.566 -117.6255
272.094727 108.828 -117.2150
272.460938 109.107 -117.2660
272.827148 109.387 -117.7529
273.193359 109.653 -118.6306
273.559570 109.894 -119.8430
273.925781 110.101 -121.3278
274.291992 110.270 -123.0145
274.658203 110.395 -124.8263
275.024414 110.478 -126.6837
275.390625 110.522 -128.5134
275.756836 110.533 -130.2578
276.123047 110.522 -131.8835
276.489258 110.497 -133.3860
276.855469 110.466 -134.7858
277.221680 110.434 -136.1200
277.587891 110.400 -137.4286
277.954102 110.363 -138.7419
278.320312 110.317 -140.0724
278.686523 110.259 -141.4130
279.052734 110.183 -142.7406
279.418945 110.089 -144.0233
279.785156 109.977 -145.2274
280.151367 109.850 -146.3231
280.517578 109.711 -147.2896
280.883789 109.564 -148.1149
281.250000 109.414 -148.7966
281.616211 109.264 -149.3396
281.982422 109.117 -149.7535
282.348633 108.976 -150.0493
282.714844 108.840 -150.2374
283.081055 108.710 -150.3260
283.447266 108.588 -150.3196
283.813477 108.473 -150.2196
284.179688 108.365 -150.0227
284.545898 108.265 -149.7216
284.912109 108.176 -149.3054
285.278320 108.100 -148.7643
285.644531 108.044 -148.0955
286.010742 108.013 -147.3136
286.376953 108.015 -146.4542
286.743164 108.052 -145.5745
287.109375 108.126 -144.7424
287.475586 108.232 -144.0217
287.841797 108.363 -143.4579
288.208008 108.507 -143.0693
288.574219 108.658 -142.8464
288.940430 108.807 -142.7588
289.306641 108.951 -142.7649
289.672852 109.089 -142.8225
290.039062 109.223 -142.8977
290.405273 109.358 -142.9690
290.771484 109.496 -143.0272
291.137695 109.641 -143.0734
291.503906 109.796 -143.1144
291.870117 109.965 -143.1616
292.236328 110.149 -143.2300
292.602539 110.350 -143.3401
292.968750 110.570 -143.5172
293.334961 110.808 -143.7911
293.701172 111.064 -144.1927
294.067383 111.335 -144.7518
294.433594 111.617 -145.4937
294.799805 111.905 -146.4379
295.166016 112.195 -147.5951
295.532227 112.480 -148.9668
295.898438 112.756 -150.5448
296.264648 113.017 -152.3132
296.630859 113.261 -154.2516
296.997070 113.484 -156.3379
297.363281 113.685 -158.5503
297.729492 113.864 -160.8691
298.095703 114.020 -163.2780
298.461914 114.153 -165.7645
298.828125 114.263 -168.3218
299.194336 114.349 -170.9475
299.560547 114.412 -173.6421
299.926758 114.447 -176.4049
