* Measurement data measured by REW V5.20.8
* Source: ASIO hdspfire, Analog 1 (1)
* Format: 4M Log Swept Sine, 1 sweep at -12.0 dBFS with no timing reference
* Dated: 13 juin 2022 13:46:01
* REW Settings:
*  C-weighting compensation: Off
*  Target level: 75.0 dB
* Note: ; 
* Measurement: off_0x1400_0_1 juin 13
* Smoothing: None
* Frequency Step: 0.36621094 Hz
* Start Frequency: 0.36621094 Hz
*
* Freq(Hz) SPL(dB) Phase(degrees)
0.366211 16.672 109.1738
0.732422 18.996 48.4102
1.098633 20.976 1.7276
1.464844 21.357 -36.1484
1.831055 19.381 -72.0559
2.197266 13.964 -125.1052
2.563477 15.117 133.7462
2.929688 21.309 93.7007
3.295898 24.724 76.0081
3.662109 26.804 65.6343
4.028320 28.165 58.8355
4.394531 29.073 55.3557
4.760742 30.137 56.1961
5.126953 32.299 57.2622
5.493164 35.377 50.4320
5.859375 38.450 34.7135
6.225586 41.095 13.6350
6.591797 43.218 -9.2974
6.958008 44.784 -31.2612
7.324219 45.791 -49.7542
7.690430 46.414 -62.2977
8.056641 47.230 -67.7344
8.422852 48.907 -70.0057
8.789062 51.168 -75.4390
9.155273 53.207 -85.0138
9.521484 54.583 -95.9325
9.887695 55.259 -104.5381
10.253906 55.658 -107.0995
10.620117 56.822 -103.7106
10.986328 59.219 -102.4905
11.352539 61.898 -108.5422
11.718750 64.056 -119.7283
12.084961 65.435 -132.7648
12.451172 65.991 -144.7599
12.817383 65.816 -152.3469
13.183594 65.476 -151.3530
13.549805 66.387 -142.8232
13.916016 68.922 -138.5846
14.282227 71.691 -143.3793
14.648438 73.913 -153.7046
15.014648 75.454 -166.3763
15.380859 76.338 -179.4555
15.747070 76.612 168.5068
16.113281 76.347 159.0605
16.479492 75.742 154.1649
16.845703 75.322 155.2893
17.211914 75.835 159.8638
17.578125 77.296 161.3987
17.944336 78.958 157.1730
18.310547 80.277 148.6974
18.676758 81.050 138.1129
19.042969 81.219 127.2090
19.409180 80.777 117.6987
19.775391 79.791 111.6467
20.141602 78.549 111.5048
20.507812 77.736 118.1353
20.874023 77.959 127.3184
21.240234 78.899 134.0853
21.606445 80.022 138.5964
21.972656 81.292 142.4841
22.338867 82.862 145.3662
22.705078 84.654 145.7338
23.071289 86.399 143.2732
23.437500 87.910 139.0590
23.803711 89.153 134.5276
24.169922 90.252 130.7101
24.536133 91.397 127.7372
24.902344 92.718 124.7581
25.268555 94.193 120.6424
25.634766 95.694 114.8532
26.000977 97.103 107.5682
26.367188 98.363 99.2762
26.733398 99.468 90.4267
27.099609 100.443 81.2872
27.465820 101.309 71.9511
27.832031 102.076 62.4252
28.198242 102.740 52.7328
28.564453 103.293 42.9722
28.930664 103.733 33.3112
29.296875 104.076 23.9302
29.663086 104.347 14.9492
30.029297 104.578 6.3772
30.395508 104.792 -1.8820
30.761719 104.996 -9.9609
31.127930 105.181 -17.9395
31.494141 105.336 -25.7983
31.860352 105.460 -33.4446
32.226562 105.564 -40.7840
32.592773 105.664 -47.7900
32.958984 105.776 -54.5240
33.325195 105.909 -61.0936
33.691406 106.058 -67.5844
34.057617 106.213 -74.0216
34.423828 106.367 -80.3866
34.790039 106.521 -86.6605
35.156250 106.674 -92.8482
35.522461 106.821 -98.9626
35.888672 106.956 -104.9864
36.254883 107.077 -110.8611
36.621094 107.189 -116.5252
36.987305 107.309 -121.9846
37.353516 107.449 -127.3527
37.719727 107.602 -132.8062
38.085938 107.741 -138.4661
38.452148 107.826 -144.2878
38.818359 107.828 -150.0376
39.184570 107.747 -155.3679
39.550781 107.623 -159.9675
39.916992 107.524 -163.7472
40.283203 107.519 -166.9634
40.649414 107.633 -170.1350
41.015625 107.832 -173.7527
41.381836 108.050 -178.0209
41.748047 108.222 177.1699
42.114258 108.313 172.1086
42.480469 108.318 167.1113
42.846680 108.256 162.4219
43.212891 108.161 158.1685
43.579102 108.060 154.3643
43.945312 107.977 150.9333
44.311523 107.923 147.7513
44.677734 107.904 144.6863
45.043945 107.913 141.6349
45.410156 107.937 138.5463
45.776367 107.966 135.4243
46.142578 107.994 132.3057
46.508789 108.020 129.2255
46.875000 108.048 126.1931
47.241211 108.079 123.1975
47.607422 108.110 120.2329
47.973633 108.139 117.3220
48.339844 108.169 114.5062
48.706055 108.210 111.8037
49.072266 108.273 109.1680
49.438477 108.365 106.4866
49.804688 108.478 103.6362
50.170898 108.590 100.5546
50.537109 108.682 97.2772
50.903320 108.741 93.9148
51.269531 108.770 90.5914
51.635742 108.779 87.3834
52.001953 108.784 84.2924
52.368164 108.795 81.2622
52.734375 108.813 78.2236
53.100586 108.833 75.1321
53.466797 108.852 71.9758
53.833008 108.866 68.7594
54.199219 108.875 65.4849
54.565430 108.880 62.1451
54.931641 108.882 58.7278
55.297852 108.882 55.2146
55.664062 108.881 51.5747
56.030273 108.877 47.7561
56.396484 108.866 43.6951
56.762695 108.834 39.3435
57.128906 108.764 34.7014
57.495117 108.641 29.8285
57.861328 108.455 24.8267
58.227539 108.210 19.7987
58.593750 107.910 14.8049
58.959961 107.564 9.8427
59.326172 107.169 4.8666
59.692383 106.713 -0.1573
60.058594 106.179 -5.1963
60.424805 105.548 -10.1254
60.791016 104.814 -14.7493
61.157227 103.987 -18.8641
61.523438 103.088 -22.3324
61.889648 102.141 -25.1320
62.255859 101.155 -27.3289
62.622070 100.118 -28.9590
62.988281 99.007 -29.8798
63.354492 97.811 -29.6948
63.720703 96.569 -27.8375
64.086914 95.395 -23.8738
64.453125 94.455 -17.9718
64.819336 93.866 -11.0879
65.185547 93.614 -4.3759
65.551758 93.601 1.5682
65.917969 93.748 6.6949
66.284180 94.026 11.0240
66.650391 94.414 14.4108
67.016602 94.867 16.6880
67.382812 95.321 17.8756
67.749023 95.728 18.2063
68.115234 96.067 18.0001
68.481445 96.348 17.5205
68.847656 96.591 16.8964
69.213867 96.811 16.1293
69.580078 97.014 15.1672
69.946289 97.189 13.9905
70.312500 97.325 12.6527
70.678711 97.419 11.2632
71.044922 97.478 9.9315
71.411133 97.518 8.7122
71.777344 97.555 7.5830
72.143555 97.595 6.4675
72.509766 97.637 5.2894
72.875977 97.670 4.0188
73.242188 97.685 2.6849
73.608398 97.679 1.3502
73.974609 97.656 0.0712
74.340820 97.626 -1.1320
74.707031 97.597 -2.2805
75.073242 97.572 -3.4198
75.439453 97.549 -4.5933
75.805664 97.523 -5.8265
76.171875 97.489 -7.1255
76.538086 97.442 -8.4836
76.904297 97.377 -9.8898
77.270508 97.295 -11.3303
77.636719 97.192 -12.7899
78.002930 97.069 -14.2521
78.369141 96.923 -15.7028
78.735352 96.754 -17.1320
79.101562 96.558 -18.5315
79.467773 96.329 -19.8857
79.833984 96.061 -21.1591
80.200195 95.746 -22.2859
80.566406 95.381 -23.1677
80.932617 94.971 -23.6841
81.298828 94.526 -23.7192
81.665039 94.066 -23.2001
82.031250 93.612 -22.1261
82.397461 93.175 -20.5592
82.763672 92.753 -18.5521
83.129883 92.333 -16.0410
83.496094 91.911 -12.7810
83.862305 91.523 -8.4061
84.228516 91.258 -2.6747
84.594727 91.249 4.1608
84.960938 91.583 11.2017
85.327148 92.237 17.3394
85.693359 93.095 21.9015
86.059570 94.035 24.8080
86.425781 94.977 26.2997
86.791992 95.879 26.6736
87.158203 96.723 26.1783
87.524414 97.498 25.0114
87.890625 98.200 23.3405
88.256836 98.831 21.3136
88.623047 99.394 19.0548
88.989258 99.899 16.6561
89.355469 100.356 14.1764
89.721680 100.772 11.6466
90.087891 101.155 9.0785
90.454102 101.512 6.4700
90.820312 101.846 3.8079
91.186523 102.157 1.0729
91.552734 102.445 -1.7500
91.918945 102.704 -4.6589
92.285156 102.929 -7.6261
92.651367 103.118 -10.6025
93.017578 103.275 -13.5334
93.383789 103.405 -16.3781
93.750000 103.515 -19.1211
94.116211 103.614 -21.7719
94.482422 103.706 -24.3500
94.848633 103.789 -26.8716
95.214844 103.867 -29.3435
95.581055 103.940 -31.7703
95.947266 104.011 -34.1642
96.313477 104.080 -36.5485
96.679688 104.145 -38.9485
97.045898 104.205 -41.3777
97.412109 104.254 -43.8290
97.778320 104.291 -46.2797
98.144531 104.317 -48.7059
98.510742 104.335 -51.0962
98.876953 104.347 -53.4557
99.243164 104.356 -55.7985
99.609375 104.359 -58.1367
99.975586 104.357 -60.4745
100.341797 104.349 -62.8109
100.708008 104.334 -65.1461
101.074219 104.312 -67.4847
101.440430 104.282 -69.8291
101.806641 104.241 -72.1708
102.172852 104.185 -74.4865
102.539062 104.117 -76.7452
102.905273 104.040 -78.9226
103.271484 103.958 -81.0118
103.637695 103.876 -83.0242
104.003906 103.796 -84.9788
104.370117 103.719 -86.8896
104.736328 103.646 -88.7634
105.102539 103.579 -90.6085
105.468750 103.520 -92.4467
105.834961 103.470 -94.3142
106.201172 103.424 -96.2473
106.567383 103.376 -98.2617
106.933594 103.320 -100.3417
107.299805 103.252 -102.4495
107.666016 103.173 -104.5470
108.032227 103.087 -106.6160
108.398438 103.001 -108.6620
108.764648 102.913 -110.7026
109.130859 102.823 -112.7499
109.497070 102.731 -114.8051
109.863281 102.637 -116.8684
110.229492 102.545 -118.9540
110.595703 102.452 -121.0928
110.961914 102.355 -123.3171
111.328125 102.247 -125.6372
111.694336 102.121 -128.0275
112.060547 101.973 -130.4379
112.426758 101.807 -132.8207
112.792969 101.628 -135.1569
113.159180 101.442 -137.4623
113.525391 101.251 -139.7699
113.891602 101.050 -142.1021
114.257812 100.835 -144.4551
114.624023 100.605 -146.8082
114.990234 100.360 -149.1467
115.356445 100.102 -151.4783
115.722656 99.830 -153.8257
116.088867 99.538 -156.2003
116.455078 99.219 -158.5770
116.821289 98.868 -160.8929
117.187500 98.490 -163.0768
117.553711 98.096 -165.0900
117.919922 97.697 -166.9552
118.286133 97.301 -168.7476
118.652344 96.902 -170.5521
119.018555 96.490 -172.4156
119.384766 96.054 -174.3269
119.750977 95.584 -176.2340
120.117188 95.082 -178.0833
120.483398 94.551 -179.8508
120.849609 93.993 178.4481
121.215820 93.408 176.7748
121.582031 92.790 175.0896
121.948242 92.127 173.3643
122.314453 91.407 171.5789
122.680664 90.613 169.7122
123.046875 89.722 167.7350
123.413086 88.702 165.6121
123.779297 87.502 163.3069
124.145508 86.045 160.7817
124.511719 84.197 157.9901
124.877930 81.705 154.8546
125.244141 77.966 151.1749
125.610352 70.755 145.7544
125.976562 61.768 -23.8003
126.342773 75.549 -35.7175
126.708984 80.700 -40.3849
127.075195 83.919 -44.4342
127.441406 86.251 -48.2195
127.807617 88.074 -51.8192
128.173828 89.571 -55.2870
128.540039 90.842 -58.6821
128.906250 91.947 -62.0624
129.272461 92.922 -65.4705
129.638672 93.788 -68.9272
130.004883 94.558 -72.4324
130.371094 95.245 -75.9703
130.737305 95.856 -79.5186
131.103516 96.401 -83.0541
131.469727 96.888 -86.5604
131.835938 97.326 -90.0320
132.202148 97.721 -93.4755
132.568359 98.078 -96.9058
132.934570 98.398 -100.3373
133.300781 98.680 -103.7736
133.666992 98.924 -107.2003
134.033203 99.128 -110.5864
134.399414 99.296 -113.8926
134.765625 99.431 -117.0831
135.131836 99.541 -120.1366
135.498047 99.633 -123.0496
135.864258 99.714 -125.8336
136.230469 99.789 -128.5095
136.596680 99.862 -131.1014
136.962891 99.935 -133.6362
137.329102 100.011 -136.1442
137.695312 100.089 -138.6578
138.061523 100.168 -141.2089
138.427734 100.245 -143.8208
138.793945 100.316 -146.5062
139.160156 100.378 -149.2668
139.526367 100.427 -152.0977
139.892578 100.463 -154.9910
140.258789 100.482 -157.9381
140.625000 100.484 -160.9294
140.991211 100.466 -163.9537
141.357422 100.428 -166.9990
141.723633 100.371 -170.0555
142.089844 100.293 -173.1163
142.456055 100.195 -176.1759
142.822266 100.074 -179.2263
143.188477 99.929 177.7454
143.554688 99.762 174.7563
143.920898 99.571 171.8248
144.287109 99.357 168.9666
144.653320 99.123 166.1946
145.019531 98.870 163.5204
145.385742 98.599 160.9539
145.751953 98.314 158.4984
146.118164 98.018 156.1433
146.484375 97.713 153.8611
146.850586 97.395 151.6187
147.216797 97.055 149.3995
147.583008 96.685 147.2269
147.949219 96.276 145.1696
148.315430 95.826 143.3236
148.681641 95.342 141.7795
149.047852 94.833 140.5931
149.414062 94.308 139.7826
149.780273 93.771 139.3604
150.146484 93.224 139.3781
150.512695 92.671 139.9457
150.878906 92.135 141.1935
151.245117 91.654 143.1841
151.611328 91.271 145.8268
151.977539 91.020 148.8684
152.343750 90.910 151.9912
152.709961 90.925 154.9371
153.076172 91.045 157.5555
153.442383 91.249 159.7646
153.808594 91.521 161.5007
154.174805 91.841 162.7112
154.541016 92.189 163.3810
154.907227 92.545 163.5500
155.273438 92.894 163.3022
155.639648 93.232 162.7328
156.005859 93.561 161.9174
156.372070 93.887 160.8936
156.738281 94.217 159.6583
157.104492 94.554 158.1760
157.470703 94.899 156.3934
157.836914 95.245 154.2578
158.203125 95.583 151.7345
158.569336 95.901 148.8199
158.935547 96.186 145.5431
159.301758 96.429 141.9587
159.667969 96.626 138.1329
160.034180 96.775 134.1298
160.400391 96.876 130.0023
160.766602 96.932 125.7921
161.132812 96.946 121.5321
161.499023 96.918 117.2522
161.865234 96.854 112.9800
162.231445 96.755 108.7362
162.597656 96.628 104.5284
162.963867 96.476 100.3481
163.330078 96.302 96.1761
163.696289 96.103 91.9944
164.062500 95.876 87.8003
164.428711 95.617 83.6124
164.794922 95.326 79.4662
165.161133 95.004 75.3986
165.527344 94.655 71.4320
165.893555 94.286 67.5663
166.259766 93.897 63.7815
166.625977 93.489 60.0535
166.992188 93.057 56.3707
167.358398 92.594 52.7445
167.724609 92.096 49.2091
168.090820 91.556 45.8174
168.457031 90.971 42.6373
168.823242 90.340 39.7545
169.189453 89.663 37.2783
169.555664 88.945 35.3445
169.921875 88.197 34.1118
170.288086 87.444 33.7448
170.654297 86.722 34.3856
171.020508 86.085 36.1045
171.386719 85.598 38.8193
171.752930 85.329 42.2069
172.119141 85.315 45.6934
172.485352 85.544 48.6154
172.851562 85.951 50.4817
173.217773 86.451 51.1217
173.583984 86.973 50.6428
173.950195 87.472 49.2925
174.316406 87.929 47.3406
174.682617 88.341 45.0179
175.048828 88.715 42.5000
175.415039 89.062 39.9111
175.781250 89.399 37.3300
176.147461 89.741 34.7849
176.513672 90.106 32.2482
176.879883 90.502 29.6399
177.246094 90.932 26.8568
177.612305 91.385 23.8136
177.978516 91.847 20.4746
178.344727 92.306 16.8600
178.710938 92.750 13.0249
179.077148 93.178 9.0300
179.443359 93.592 4.9167
179.809570 93.993 0.6982
180.175781 94.382 -3.6331
180.541992 94.758 -8.0917
180.908203 95.115 -12.6843
181.274414 95.447 -17.4023
181.640625 95.749 -22.2217
182.006836 96.016 -27.1053
182.373047 96.244 -32.0088
182.739258 96.434 -36.8843
183.105469 96.586 -41.6869
183.471680 96.703 -46.3810
183.837891 96.790 -50.9447
184.204102 96.851 -55.3713
184.570312 96.887 -59.6630
184.936523 96.897 -63.8196
185.302734 96.880 -67.8274
185.668945 96.834 -71.6528
186.035156 96.761 -75.2473
186.401367 96.666 -78.5620
186.767578 96.560 -81.5674
187.133789 96.452 -84.2666
187.500000 96.352 -86.6963
187.866211 96.265 -88.9111
188.232422 96.190 -90.9585
188.598633 96.122 -92.8579
188.964844 96.059 -94.5984
189.331055 96.002 -96.1492
189.697266 95.955 -97.4812
190.063477 95.929 -98.5872
190.429688 95.934 -99.4924
190.795898 95.977 -100.2532
191.162109 96.064 -100.9465
191.528320 96.194 -101.6553
191.894531 96.363 -102.4546
192.260742 96.563 -103.4004
192.626953 96.786 -104.5266
192.993164 97.021 -105.8442
193.359375 97.262 -107.3486
193.725586 97.502 -109.0266
194.091797 97.738 -110.8638
194.458008 97.965 -112.8447
194.824219 98.180 -114.9521
195.190430 98.378 -117.1641
195.556641 98.559 -119.4512
195.922852 98.720 -121.7832
196.289062 98.862 -124.1304
196.655273 98.987 -126.4692
197.021484 99.099 -128.7856
197.387695 99.198 -131.0708
197.753906 99.288 -133.3208
198.120117 99.370 -135.5332
198.486328 99.445 -137.7078
198.852539 99.515 -139.8472
199.218750 99.582 -141.9575
199.584961 99.646 -144.0449
199.951172 99.708 -146.1152
200.317383 99.767 -148.1719
200.683594 99.826 -150.2163
201.049805 99.884 -152.2529
201.416016 99.942 -154.2915
201.782227 100.002 -156.3472
202.148438 100.063 -158.4385
202.514648 100.122 -160.5815
202.880859 100.179 -162.7871
203.247070 100.230 -165.0605
203.613281 100.274 -167.4023
203.979492 100.307 -169.8145
204.345703 100.330 -172.3008
204.711914 100.338 -174.8652
205.078125 100.328 -177.5103
205.444336 100.296 179.7681
205.810547 100.239 176.9785
206.176758 100.151 174.1362
206.542969 100.027 171.2637
206.909180 99.862 168.3916
207.275391 99.652 165.5635
207.641602 99.391 162.8406
208.007812 99.079 160.3042
208.374023 98.715 158.0510
208.740234 98.308 156.1851
209.106445 97.869 154.8020
209.472656 97.417 153.9712
209.838867 96.975 153.7183
210.205078 96.567 154.0137
210.571289 96.213 154.7720
210.937500 95.929 155.8662
211.303711 95.722 157.1470
211.669922 95.590 158.4692
212.036133 95.526 159.7078
212.402344 95.518 160.7676
212.768555 95.550 161.5889
213.134766 95.606 162.1482
213.500977 95.672 162.4565
213.867188 95.734 162.5574
214.233398 95.785 162.5171
214.599609 95.819 162.4155
214.965820 95.839 162.3306
215.332031 95.850 162.3252
215.698242 95.862 162.4399
216.064453 95.884 162.6851
216.430664 95.928 163.0400
216.796875 96.001 163.4570
217.163086 96.110 163.8672
217.529297 96.253 164.1921
217.895508 96.426 164.3613
218.261719 96.621 164.3276
218.627930 96.825 164.0759
218.994141 97.031 163.6230
219.360352 97.233 163.0032
219.726562 97.430 162.2490
220.092773 97.623 161.3765
220.458984 97.813 160.3799
220.825195 97.999 159.2417
221.191406 98.175 157.9480
221.557617 98.334 156.5083
221.923828 98.470 154.9597
222.290039 98.581 153.3572
222.656250 98.668 151.7551
223.022461 98.737 150.1890
223.388672 98.793 148.6670
223.754883 98.840 147.1785
224.121094 98.878 145.7112
224.487305 98.906 144.2666
224.853516 98.923 142.8630
225.219727 98.932 141.5249
225.585938 98.937 140.2642
225.952148 98.944 139.0698
226.318359 98.956 137.9104
226.684570 98.973 136.7507
227.050781 98.990 135.5708
227.416992 99.004 134.3740
227.783203 99.011 133.1860
228.149414 99.014 132.0376
228.515625 99.016 130.9497
228.881836 99.024 129.9216
229.248047 99.043 128.9277
229.614258 99.079 127.9211
229.980469 99.129 126.8457
230.346680 99.192 125.6489
230.712891 99.259 124.2920
231.079102 99.321 122.7573
231.445312 99.372 121.0469
231.811523 99.401 119.1780
232.177734 99.403 117.1772
232.543945 99.372 115.0796
232.910156 99.302 112.9292
233.276367 99.189 110.7805
233.642578 99.032 108.7000
234.008789 98.829 106.7610
234.375000 98.584 105.0388
234.741211 98.303 103.6047
235.107422 97.994 102.5217
235.473633 97.669 101.8430
235.839844 97.342 101.6094
236.206055 97.029 101.8396
236.572266 96.749 102.5154
236.938477 96.522 103.5693
237.304688 96.363 104.8857
237.670898 96.276 106.3206
238.037109 96.258 107.7346
238.403320 96.302 109.0205
238.769531 96.393 110.1094
239.135742 96.519 110.9634
239.501953 96.669 111.5659
239.868164 96.831 111.9194
240.234375 96.992 112.0488
240.600586 97.145 112.0051
240.966797 97.283 111.8611
241.333008 97.404 111.7000
241.699219 97.515 111.5994
242.065430 97.624 111.6184
242.431641 97.744 111.7861
242.797852 97.888 112.0964
243.164062 98.072 112.5061
243.530273 98.305 112.9353
243.896484 98.593 113.2773
244.262695 98.935 113.4155
244.628906 99.324 113.2434
244.995117 99.748 112.6829
245.361328 100.193 111.6882
245.727539 100.644 110.2412
246.093750 101.090 108.3411
246.459961 101.519 105.9995
246.826172 101.917 103.2395
247.192383 102.273 100.1011
247.558594 102.578 96.6440
247.924805 102.821 92.9468
248.291016 102.999 89.1018
248.657227 103.111 85.2058
249.023438 103.160 81.3501
249.389648 103.151 77.6150
249.755859 103.093 74.0654
250.122070 102.995 70.7507
250.488281 102.869 67.7043
250.854492 102.725 64.9438
251.220703 102.575 62.4702
251.586914 102.432 60.2664
251.953125 102.304 58.2981
252.319336 102.200 56.5166
252.685547 102.127 54.8640
253.051758 102.089 53.2788
253.417969 102.087 51.6992
253.784180 102.121 50.0645
254.150391 102.191 48.3174
254.516602 102.294 46.4041
254.882812 102.427 44.2744
255.249023 102.586 41.8813
255.615234 102.767 39.1799
255.981445 102.964 36.1272
256.347656 103.172 32.6812
256.713867 103.382 28.8054
257.080078 103.587 24.4692
257.446289 103.777 19.6501
257.812500 103.944 14.3325
258.178711 104.077 8.5068
258.544922 104.169 2.1675
258.911133 104.210 -4.6870
259.277344 104.191 -12.0559
259.643555 104.104 -19.9358
260.009766 103.941 -28.3228
260.375977 103.694 -37.2139
260.742188 103.354 -46.6077
261.108398 102.914 -56.5068
261.474609 102.367 -66.9180
261.840820 101.704 -77.8521
262.207031 100.921 -89.3262
262.573242 100.012 -101.3633
262.939453 98.977 -113.9941
263.305664 97.819 -127.2578
263.671875 96.548 -141.1985
264.038086 95.183 -155.8555
264.404297 93.754 -171.2419
264.770508 92.300 172.6943
265.136719 90.866 156.1135
265.502930 89.485 139.3105
265.869141 88.171 122.6826
266.235352 86.898 106.6375
266.601562 85.606 91.4795
266.967773 84.201 77.3381
267.333984 82.555 64.1472
267.700195 80.473 51.6184
268.066406 77.599 39.0435
268.432617 73.046 24.0095
268.798828 63.493 -15.6699
269.165039 68.254 -135.6768
269.531250 75.567 -157.1680
269.897461 79.637 -168.1877
270.263672 82.438 -176.7891
270.629883 84.562 175.6775
270.996094 86.259 168.7671
271.362305 87.660 162.2725
271.728516 88.838 156.0786
272.094727 89.839 150.1187
272.460938 90.693 144.3569
272.827148 91.422 138.7754
273.193359 92.042 133.3613
273.559570 92.567 128.0984
273.925781 93.005 122.9670
274.291992 93.361 117.9480
274.658203 93.635 113.0342
275.024414 93.825 108.2393
275.390625 93.928 103.6040
275.756836 93.939 99.1968
276.123047 93.858 95.1125
276.489258 93.686 91.4739
276.855469 93.428 88.4331
277.221680 93.099 86.1748
277.587891 92.725 84.9048
277.954102 92.355 84.8037
278.320312 92.060 85.9272
278.686523 91.924 88.0669
279.052734 92.011 90.6814
279.418945 92.334 93.0352
279.785156 92.839 94.4978
280.151367 93.443 94.7588
280.517578 94.067 93.8162
280.883789 94.656 91.8425
281.250000 95.178 89.0627
281.616211 95.617 85.6853
281.982422 95.967 81.8787
282.348633 96.228 77.7720
282.714844 96.400 73.4668
283.081055 96.484 69.0500
283.447266 96.478 64.6064
283.813477 96.385 60.2261
284.179688 96.208 56.0042
284.545898 95.952 52.0366
284.912109 95.630 48.4131
285.278320 95.254 45.2061
285.644531 94.845 42.4617
286.010742 94.423 40.1875
286.376953 94.011 38.3386
286.743164 93.631 36.8066
287.109375 93.297 35.4219
287.475586 93.012 33.9773
287.841797 92.766 32.2737
288.208008 92.541 30.1553
288.574219 92.317 27.5193
288.940430 92.077 24.2881
289.306641 91.809 20.3679
289.672852 91.501 15.6184
290.039062 91.142 9.8423
290.405273 90.719 2.7913
290.771484 90.226 -5.8318
291.137695 89.676 -16.3767
291.503906 89.128 -29.2217
291.870117 88.704 -44.6179
292.236328 88.587 -62.3110
292.602539 88.943 -81.1628
292.968750 89.793 -99.4617
293.334961 90.996 -115.9089
293.701172 92.362 -130.1223
294.067383 93.755 -142.3372
294.433594 95.101 -152.9814
294.799805 96.368 -162.4644
295.166016 97.548 -171.1208
295.532227 98.639 -179.2085
295.898438 99.642 173.0845
296.264648 100.555 165.6340
296.630859 101.379 158.3694
296.997070 102.116 151.2593
297.363281 102.768 144.2927
297.729492 103.341 137.4648
298.095703 103.841 130.7661
298.461914 104.274 124.1797
298.828125 104.641 117.6848
299.194336 104.946 111.2629
299.560547 105.188 104.9011
299.926758 105.366 98.5947
