* Measurement data measured by REW V5.20.8
* Source: ASIO hdspfire, Analog 1 (1)
* Format: 4M Log Swept Sine, 1 sweep at -12.0 dBFS with no timing reference
* Dated: 13 juin 2022 14:16:22
* REW Settings:
*  C-weighting compensation: Off
*  Target level: 75.0 dB
* Note: ; 
* Measurement: off_0x1400_4_3 juin 13
* Smoothing: None
* Frequency Step: 0.36621094 Hz
* Start Frequency: 0.36621094 Hz
*
* Freq(Hz) SPL(dB) Phase(degrees)
0.366211 19.588 24.4330
0.732422 21.040 35.4843
1.098633 21.209 43.1366
1.464844 20.747 56.5052
1.831055 21.114 74.4731
2.197266 22.430 88.4491
2.563477 24.011 96.3448
2.929688 25.760 97.0342
3.295898 27.392 87.4888
3.662109 28.569 66.4642
4.028320 29.483 35.0589
4.394531 30.549 -1.6298
4.760742 31.433 -36.4660
5.126953 30.907 -65.8649
5.493164 26.393 -85.6976
5.859375 21.920 22.0163
6.225586 35.077 22.5446
6.591797 40.886 4.0664
6.958008 44.300 -14.4136
7.324219 46.375 -30.6434
7.690430 47.666 -43.1926
8.056641 48.732 -51.4618
8.422852 50.097 -57.2038
8.789062 51.837 -63.8911
9.155273 53.582 -73.0578
9.521484 54.995 -83.4352
9.887695 55.994 -92.5458
10.253906 56.806 -97.9453
10.620117 57.974 -99.2011
10.986328 59.891 -99.9676
11.352539 62.220 -104.3444
11.718750 64.373 -112.6016
12.084961 66.027 -122.8627
12.451172 67.090 -133.0103
12.817383 67.617 -140.9317
13.183594 67.863 -144.5367
13.549805 68.398 -143.1624
13.916016 69.768 -140.2678
14.282227 71.770 -140.9031
14.648438 73.792 -146.2626
15.014648 75.467 -154.8357
15.380859 76.682 -164.8864
15.747070 77.439 -175.0151
16.113281 77.797 175.9761
16.479492 77.886 169.1700
16.845703 77.946 165.2243
17.211914 78.283 163.5367
17.578125 79.053 161.9411
17.944336 80.095 158.3218
18.310547 81.108 152.1898
18.676758 81.872 144.3383
19.042969 82.292 135.9826
19.409180 82.374 128.3652
19.775391 82.216 122.5817
20.141602 82.014 119.2256
20.507812 82.001 117.8047
20.874023 82.274 116.7551
21.240234 82.709 114.6967
21.606445 83.096 111.4753
21.972656 83.302 107.9011
22.338867 83.327 105.0278
22.705078 83.272 103.5858
23.071289 83.286 103.6039
23.437500 83.460 104.4682
23.803711 83.767 105.5749
24.169922 84.163 106.8987
24.536133 84.672 108.7821
24.902344 85.408 111.1835
25.268555 86.468 113.1994
25.634766 87.810 113.5592
26.000977 89.274 111.5500
26.367188 90.693 107.2444
26.733398 91.958 101.1336
27.099609 93.010 93.8062
27.465820 93.824 85.8391
27.832031 94.396 77.8025
28.198242 94.751 70.2830
28.564453 94.946 63.8539
28.930664 95.093 58.9207
29.296875 95.342 55.4164
29.663086 95.821 52.5693
30.029297 96.540 49.1991
30.395508 97.394 44.4489
30.761719 98.238 38.1732
31.127930 98.965 30.7505
31.494141 99.528 22.7515
31.860352 99.927 14.7288
32.226562 100.195 7.1145
32.592773 100.382 0.1602
32.958984 100.540 -6.0944
33.325195 100.716 -11.7944
33.691406 100.923 -17.1638
34.057617 101.152 -22.3646
34.423828 101.383 -27.4137
34.790039 101.606 -32.2077
35.156250 101.835 -36.6298
35.522461 102.096 -40.6690
35.888672 102.414 -44.4750
36.254883 102.789 -48.2914
36.621094 103.198 -52.3060
36.987305 103.604 -56.5357
37.353516 103.983 -60.8316
37.719727 104.337 -64.9900
38.085938 104.694 -68.9003
38.452148 105.087 -72.6447
38.818359 105.532 -76.4753
39.184570 106.009 -80.6619
39.550781 106.476 -85.3247
39.916992 106.889 -90.3727
40.283203 107.222 -95.5620
40.649414 107.476 -100.6080
41.015625 107.677 -105.2957
41.381836 107.860 -109.5502
41.748047 108.061 -113.4452
42.114258 108.295 -117.1419
42.480469 108.564 -120.7984
42.846680 108.858 -124.5129
43.212891 109.173 -128.3276
43.579102 109.498 -132.2648
43.945312 109.827 -136.3496
44.311523 110.149 -140.6013
44.677734 110.458 -145.0094
45.043945 110.746 -149.5232
45.410156 111.012 -154.0715
45.776367 111.262 -158.5999
46.142578 111.508 -163.1044
46.508789 111.758 -167.6354
46.875000 112.013 -172.2705
47.241211 112.266 -177.0726
47.607422 112.506 177.9380
47.973633 112.725 172.7804
48.339844 112.919 167.4880
48.706055 113.089 162.0784
49.072266 113.238 156.5380
49.438477 113.362 150.8288
49.804688 113.454 144.9118
50.170898 113.503 138.7734
50.537109 113.494 132.4402
50.903320 113.417 125.9783
51.269531 113.265 119.4782
51.635742 113.039 113.0327
52.001953 112.745 106.7146
52.368164 112.391 100.5607
52.734375 111.986 94.5698
53.100586 111.531 88.7160
53.466797 111.023 82.9768
53.833008 110.454 77.3623
54.199219 109.817 71.9308
54.565430 109.109 66.7812
54.931641 108.336 62.0220
55.297852 107.512 57.7286
55.664062 106.654 53.9105
56.030273 105.775 50.5146
56.396484 104.873 47.4736
56.762695 103.942 44.7725
57.128906 102.972 42.4807
57.495117 101.968 40.7107
57.861328 100.950 39.5193
58.227539 99.941 38.8208
58.593750 98.933 38.4154
58.959961 97.886 38.1694
59.326172 96.732 38.2386
59.692383 95.415 39.1930
60.058594 93.941 41.9814
60.424805 92.428 47.6710
60.791016 91.133 56.7714
61.157227 90.353 68.3531
61.523438 90.199 80.2913
61.889648 90.557 90.8248
62.255859 91.249 99.1783
62.622070 92.119 105.1043
62.988281 93.028 108.6752
63.354492 93.858 110.2927
63.720703 94.544 110.5617
64.086914 95.067 110.0906
64.453125 95.442 109.3526
64.819336 95.701 108.6436
65.185547 95.875 108.1209
65.551758 95.985 107.8880
65.917969 96.050 108.0607
66.284180 96.101 108.7581
66.650391 96.179 110.0179
67.016602 96.332 111.7057
67.382812 96.587 113.5246
67.749023 96.939 115.1519
68.115234 97.358 116.3903
68.481445 97.815 117.2030
68.847656 98.294 117.6368
69.213867 98.788 117.7294
69.580078 99.295 117.4736
69.946289 99.808 116.8436
70.312500 100.315 115.8353
70.678711 100.804 114.4835
71.044922 101.271 112.8450
71.411133 101.714 110.9714
71.777344 102.133 108.8933
72.143555 102.529 106.6219
72.509766 102.901 104.1605
72.875977 103.246 101.5154
73.242188 103.561 98.6993
73.608398 103.840 95.7342
73.974609 104.079 92.6548
74.340820 104.276 89.5130
74.707031 104.431 86.3760
75.073242 104.548 83.3134
75.439453 104.637 80.3736
75.805664 104.709 77.5630
76.171875 104.774 74.8426
76.538086 104.834 72.1484
76.904297 104.884 69.4280
77.270508 104.917 66.6683
77.636719 104.929 63.8970
78.002930 104.918 61.1591
78.369141 104.889 58.4857
78.735352 104.848 55.8762
79.101562 104.793 53.3054
79.467773 104.724 50.7506
79.833984 104.632 48.2176
80.200195 104.513 45.7498
80.566406 104.364 43.4152
80.932617 104.193 41.2798
81.298828 104.010 39.3856
81.665039 103.826 37.7378
82.031250 103.652 36.3099
82.397461 103.494 35.0565
82.763672 103.355 33.9282
83.129883 103.234 32.8846
83.496094 103.131 31.8998
83.862305 103.043 30.9620
84.228516 102.971 30.0660
84.594727 102.917 29.1988
84.960938 102.884 28.3287
85.327148 102.874 27.4055
85.693359 102.881 26.3755
86.059570 102.896 25.2040
86.425781 102.910 23.8899
86.791992 102.914 22.4653
87.158203 102.904 20.9814
87.524414 102.879 19.4908
87.890625 102.844 18.0335
88.256836 102.803 16.6307
88.623047 102.763 15.2805
88.989258 102.729 13.9574
89.355469 102.704 12.6156
89.721680 102.685 11.2017
90.087891 102.665 9.6770
90.454102 102.631 8.0397
90.820312 102.574 6.3350
91.186523 102.487 4.6457
91.552734 102.373 3.0657
91.918945 102.242 1.6677
92.285156 102.107 0.4778
92.651367 101.980 -0.5284
93.017578 101.870 -1.4087
93.383789 101.778 -2.2206
93.750000 101.701 -2.9964
94.116211 101.638 -3.7374
94.482422 101.592 -4.4349
94.848633 101.568 -5.1018
95.214844 101.573 -5.7961
95.581055 101.608 -6.6166
95.947266 101.664 -7.6664
96.313477 101.723 -9.0048
96.679688 101.763 -10.6171
97.045898 101.768 -12.4162
97.412109 101.732 -14.2769
97.778320 101.659 -16.0792
98.144531 101.560 -17.7446
98.510742 101.447 -19.2483
98.876953 101.331 -20.6033
99.243164 101.216 -21.8322
99.609375 101.107 -22.9468
99.975586 101.009 -23.9552
100.341797 100.928 -24.8834
100.708008 100.871 -25.7924
101.074219 100.838 -26.7654
101.440430 100.821 -27.8716
101.806641 100.805 -29.1334
102.172852 100.782 -30.5214
102.539062 100.746 -31.9830
102.905273 100.699 -33.4791
103.271484 100.645 -35.0073
103.637695 100.585 -36.5930
104.003906 100.512 -38.2581
104.370117 100.421 -39.9925
104.736328 100.303 -41.7467
105.102539 100.160 -43.4533
105.468750 99.995 -45.0594
105.834961 99.818 -46.5497
106.201172 99.634 -47.9454
106.567383 99.444 -49.2782
106.933594 99.243 -50.5603
107.299805 99.027 -51.7684
107.666016 98.795 -52.8541
108.032227 98.551 -53.7695
108.398438 98.306 -54.4922
108.764648 98.065 -55.0317
109.130859 97.834 -55.4163
109.497070 97.614 -55.6730
109.863281 97.406 -55.8170
110.229492 97.211 -55.8560
110.595703 97.031 -55.8029
110.961914 96.865 -55.6782
111.328125 96.713 -55.4981
111.694336 96.572 -55.2584
112.060547 96.441 -54.9308
112.426758 96.325 -54.4803
112.792969 96.234 -53.8958
113.159180 96.179 -53.2124
113.525391 96.168 -52.5096
113.891602 96.202 -51.8856
114.257812 96.272 -51.4260
114.624023 96.369 -51.1844
114.990234 96.480 -51.1772
115.356445 96.593 -51.3868
115.722656 96.701 -51.7676
116.088867 96.802 -52.2590
116.455078 96.899 -52.8093
116.821289 96.999 -53.4023
117.187500 97.110 -54.0721
117.553711 97.232 -54.8849
117.919922 97.357 -55.8965
118.286133 97.473 -57.1114
118.652344 97.568 -58.4734
119.018555 97.641 -59.8965
119.384766 97.700 -61.3157
119.750977 97.757 -62.7275
120.117188 97.820 -64.1919
120.483398 97.888 -65.7917
120.849609 97.949 -67.5787
121.215820 97.990 -69.5414
121.582031 98.003 -71.6173
121.948242 97.988 -73.7316
122.314453 97.951 -75.8396
122.680664 97.900 -77.9468
123.046875 97.838 -80.0972
123.413086 97.762 -82.3411
123.779297 97.664 -84.7042
124.145508 97.535 -87.1748
124.511719 97.366 -89.7108
124.877930 97.154 -92.2578
125.244141 96.900 -94.7646
125.610352 96.606 -97.1926
125.976562 96.276 -99.5198
126.342773 95.913 -101.7440
126.708984 95.520 -103.8842
127.075195 95.094 -105.9767
127.441406 94.626 -108.0596
127.807617 94.101 -110.1459
128.173828 93.496 -112.1945
128.540039 92.787 -114.0900
128.906250 91.953 -115.6366
129.272461 90.978 -116.5624
129.638672 89.853 -116.5195
130.004883 88.580 -115.0574
130.371094 87.176 -111.5488
130.737305 85.707 -105.0911
131.103516 84.366 -94.6254
131.469727 83.558 -79.9849
131.835938 83.692 -63.7325
132.202148 84.692 -49.9638
132.568359 86.097 -40.4265
132.934570 87.560 -34.4706
133.300781 88.944 -30.9771
133.666992 90.220 -29.1527
134.033203 91.389 -28.5432
134.399414 92.453 -28.8721
134.765625 93.410 -29.9160
135.131836 94.260 -31.4523
135.498047 95.013 -33.2700
135.864258 95.687 -35.2039
136.230469 96.306 -37.1685
136.596680 96.892 -39.1634
136.962891 97.459 -41.2485
137.329102 98.011 -43.4983
137.695312 98.542 -45.9623
138.061523 99.047 -48.6496
138.427734 99.518 -51.5366
138.793945 99.953 -54.5854
139.160156 100.351 -57.7575
139.526367 100.714 -61.0187
139.892578 101.042 -64.3384
140.258789 101.337 -67.6886
140.625000 101.602 -71.0461
140.991211 101.842 -74.3974
141.357422 102.059 -77.7401
141.723633 102.256 -81.0805
142.089844 102.434 -84.4252
142.456055 102.592 -87.7745
142.822266 102.728 -91.1201
143.188477 102.845 -94.4495
143.554688 102.943 -97.7542
143.920898 103.026 -101.0332
144.287109 103.094 -104.2917
144.653320 103.147 -107.5328
145.019531 103.183 -110.7501
145.385742 103.203 -113.9263
145.751953 103.210 -117.0406
146.118164 103.207 -120.0809
146.484375 103.200 -123.0526
146.850586 103.193 -125.9790
147.216797 103.187 -128.8915
147.583008 103.180 -131.8160
147.949219 103.169 -134.7643
148.315430 103.154 -137.7355
148.681641 103.133 -140.7261
149.047852 103.108 -143.7385
149.414062 103.076 -146.7847
149.780273 103.037 -149.8777
150.146484 102.988 -153.0222
150.512695 102.924 -156.2089
150.878906 102.843 -159.4146
151.245117 102.745 -162.6135
151.611328 102.632 -165.7872
151.977539 102.505 -168.9292
152.343750 102.366 -172.0422
152.709961 102.215 -175.1293
153.076172 102.052 -178.1873
153.442383 101.873 178.7961
153.808594 101.681 175.8386
154.174805 101.475 172.9570
154.541016 101.258 170.1622
154.907227 101.032 167.4594
155.273438 100.800 164.8483
155.639648 100.564 162.3253
156.005859 100.325 159.8848
156.372070 100.083 157.5193
156.738281 99.838 155.2230
157.104492 99.591 152.9943
157.470703 99.340 150.8369
157.836914 99.086 148.7583
158.203125 98.829 146.7645
158.569336 98.571 144.8560
158.935547 98.311 143.0293
159.301758 98.048 141.2845
159.667969 97.779 139.6345
160.034180 97.504 138.1088
160.400391 97.223 136.7496
160.766602 96.940 135.6023
161.132812 96.663 134.7031
161.499023 96.402 134.0701
161.865234 96.168 133.6982
162.231445 95.973 133.5591
162.597656 95.825 133.5996
162.963867 95.730 133.7506
163.330078 95.692 133.9380
163.696289 95.710 134.0980
164.062500 95.782 134.1816
164.428711 95.909 134.1458
164.794922 96.089 133.9359
165.161133 96.324 133.4741
165.527344 96.607 132.6687
165.893555 96.926 131.4404
166.259766 97.263 129.7471
166.625977 97.602 127.5941
166.992188 97.928 125.0234
167.358398 98.232 122.0945
167.724609 98.509 118.8672
168.090820 98.754 115.3928
168.457031 98.966 111.7156
168.823242 99.144 107.8768
169.189453 99.287 103.9191
169.555664 99.396 99.8839
169.921875 99.472 95.8074
170.288086 99.520 91.7141
170.654297 99.542 87.6157
171.020508 99.540 83.5128
171.386719 99.516 79.4031
171.752930 99.468 75.2894
172.119141 99.394 71.1841
172.485352 99.293 67.1099
172.851562 99.166 63.0935
173.217773 99.015 59.1589
173.583984 98.843 55.3202
173.950195 98.653 51.5793
174.316406 98.447 47.9309
174.682617 98.224 44.3687
175.048828 97.985 40.8939
175.415039 97.726 37.5190
175.781250 97.449 34.2655
176.147461 97.154 31.1560
176.513672 96.844 28.2053
176.879883 96.524 25.4139
177.246094 96.195 22.7694
177.612305 95.858 20.2549
177.978516 95.509 17.8607
178.344727 95.143 15.5962
178.710938 94.757 13.4922
179.077148 94.348 11.5970
179.443359 93.919 9.9656
179.809570 93.472 8.6487
180.175781 93.012 7.6895
180.541992 92.545 7.1282
180.908203 92.076 7.0137
181.274414 91.613 7.4119
181.640625 91.170 8.4004
182.006836 90.771 10.0433
182.373047 90.445 12.3517
182.739258 90.231 15.2423
183.105469 90.159 18.5214
183.471680 90.249 21.9044
183.837891 90.503 25.0687
184.204102 90.902 27.7162
184.570312 91.415 29.6221
184.936523 92.004 30.6570
185.302734 92.628 30.7849
185.668945 93.254 30.0432
186.035156 93.853 28.5184
186.401367 94.403 26.3245
186.767578 94.890 23.5898
187.133789 95.302 20.4490
187.500000 95.635 17.0371
187.866211 95.889 13.4824
188.232422 96.068 9.8993
188.598633 96.180 6.3795
188.964844 96.234 2.9886
189.331055 96.239 -0.2317
189.697266 96.203 -3.2566
190.063477 96.133 -6.0684
190.429688 96.035 -8.6497
190.795898 95.916 -10.9836
191.162109 95.781 -13.0581
191.528320 95.639 -14.8710
191.894531 95.497 -16.4319
192.260742 95.362 -17.7587
192.626953 95.236 -18.8729
192.993164 95.127 -19.7963
193.359375 95.037 -20.5536
193.725586 94.971 -21.1761
194.091797 94.933 -21.7046
194.458008 94.924 -22.1874
194.824219 94.944 -22.6763
195.190430 94.990 -23.2206
195.556641 95.057 -23.8611
195.922852 95.138 -24.6239
196.289062 95.224 -25.5159
196.655273 95.309 -26.5244
197.021484 95.389 -27.6228
197.387695 95.459 -28.7794
197.753906 95.520 -29.9658
198.120117 95.570 -31.1581
198.486328 95.610 -32.3345
198.852539 95.641 -33.4701
199.218750 95.665 -34.5369
199.584961 95.685 -35.5106
199.951172 95.709 -36.3820
200.317383 95.742 -37.1637
200.683594 95.790 -37.8888
201.049805 95.854 -38.5990
201.416016 95.931 -39.3290
201.782227 96.019 -40.0983
202.148438 96.115 -40.9117
202.514648 96.216 -41.7670
202.880859 96.322 -42.6613
203.247070 96.434 -43.5948
203.613281 96.550 -44.5703
203.979492 96.671 -45.5902
204.345703 96.796 -46.6581
204.711914 96.927 -47.7795
205.078125 97.062 -48.9647
205.444336 97.201 -50.2275
205.810547 97.343 -51.5840
206.176758 97.486 -53.0491
206.542969 97.626 -54.6344
206.909180 97.758 -56.3452
207.275391 97.879 -58.1794
207.641602 97.984 -60.1250
208.007812 98.067 -62.1598
208.374023 98.127 -64.2513
208.740234 98.160 -66.3611
209.106445 98.168 -68.4482
209.472656 98.153 -70.4766
209.838867 98.119 -72.4187
210.205078 98.071 -74.2595
210.571289 98.013 -75.9963
210.937500 97.949 -77.6370
211.303711 97.881 -79.1946
211.669922 97.812 -80.6831
212.036133 97.741 -82.1121
212.402344 97.666 -83.4860
212.768555 97.589 -84.8052
213.134766 97.508 -86.0686
213.500977 97.425 -87.2749
213.867188 97.339 -88.4224
214.233398 97.250 -89.5078
214.599609 97.158 -90.5260
214.965820 97.064 -91.4713
215.332031 96.968 -92.3386
215.698242 96.871 -93.1224
216.064453 96.773 -93.8129
216.430664 96.673 -94.3906
216.796875 96.575 -94.8268
217.163086 96.485 -95.0927
217.529297 96.411 -95.1758
217.895508 96.364 -95.0953
218.261719 96.354 -94.9041
218.627930 96.385 -94.6748
218.994141 96.458 -94.4796
219.360352 96.569 -94.3767
219.726562 96.715 -94.4121
220.092773 96.893 -94.6293
220.458984 97.098 -95.0734
220.825195 97.322 -95.7845
221.191406 97.557 -96.7858
221.557617 97.792 -98.0758
221.923828 98.021 -99.6359
222.290039 98.240 -101.4435
222.656250 98.445 -103.4856
223.022461 98.634 -105.7616
223.388672 98.801 -108.2740
223.754883 98.942 -111.0175
224.121094 99.049 -113.9701
224.487305 99.118 -117.0967
224.853516 99.146 -120.3610
225.219727 99.134 -123.7385
225.585938 99.082 -127.2263
225.952148 98.988 -130.8403
226.318359 98.845 -134.6024
226.684570 98.642 -138.5223
227.050781 98.363 -142.5786
227.416992 97.992 -146.7070
227.783203 97.511 -150.7965
228.149414 96.909 -154.6932
228.515625 96.178 -158.2065
228.881836 95.317 -161.1174
229.248047 94.331 -163.1816
229.614258 93.236 -164.1287
229.980469 92.056 -163.6547
230.346680 90.837 -161.4235
230.712891 89.659 -157.1184
231.079102 88.644 -150.6200
231.445312 87.943 -142.3165
231.811523 87.660 -133.2573
232.177734 87.779 -124.7327
232.543945 88.181 -117.5767
232.910156 88.731 -111.9568
233.276367 89.343 -107.6671
233.642578 89.975 -104.4468
234.008789 90.607 -102.1173
234.375000 91.224 -100.5760
234.741211 91.807 -99.7368
235.107422 92.338 -99.4803
235.473633 92.801 -99.6383
235.839844 93.190 -100.0112
236.206055 93.511 -100.3994
236.572266 93.781 -100.6404
236.938477 94.025 -100.6376
237.304688 94.268 -100.3717
237.670898 94.532 -99.8909
238.037109 94.830 -99.2797
238.403320 95.170 -98.6293
238.769531 95.554 -98.0214
239.135742 95.985 -97.5303
239.501953 96.461 -97.2322
239.868164 96.980 -97.2062
240.234375 97.534 -97.5270
240.600586 98.114 -98.2531
240.966797 98.707 -99.4207
241.333008 99.302 -101.0419
241.699219 99.886 -103.1097
242.065430 100.450 -105.6023
242.431641 100.985 -108.4860
242.797852 101.483 -111.7198
243.164062 101.940 -115.2590
243.530273 102.352 -119.0594
243.896484 102.719 -123.0813
244.262695 103.038 -127.2899
244.628906 103.311 -131.6564
244.995117 103.535 -136.1570
245.361328 103.712 -140.7723
245.727539 103.840 -145.4871
246.093750 103.918 -150.2881
246.459961 103.942 -155.1614
246.826172 103.910 -160.0863
247.192383 103.817 -165.0308
247.558594 103.657 -169.9474
247.924805 103.429 -174.7729
248.291016 103.130 -179.4298
248.657227 102.764 176.1674
249.023438 102.336 172.1055
249.389648 101.856 168.4652
249.755859 101.337 165.3113
250.122070 100.797 162.6846
250.488281 100.254 160.5914
250.854492 99.729 158.9967
251.220703 99.237 157.8225
251.586914 98.791 156.9568
251.953125 98.395 156.2729
252.319336 98.047 155.6500
252.685547 97.740 154.9879
253.051758 97.463 154.2124
253.417969 97.206 153.2732
253.784180 96.955 152.1418
254.150391 96.698 150.8113
254.516602 96.424 149.2957
254.882812 96.122 147.6249
255.249023 95.787 145.8339
255.615234 95.414 143.9470
255.981445 95.000 141.9645
256.347656 94.538 139.8580
256.713867 94.015 137.5771
257.080078 93.407 135.0677
257.446289 92.680 132.2936
257.812500 91.780 129.2566
258.178711 90.631 126.0193
258.544922 89.116 122.7445
258.911133 87.030 119.8156
259.277344 83.943 118.3204
259.643555 78.683 123.1361
260.009766 70.141 -174.1135
260.375977 79.119 -111.2762
260.742188 84.834 -107.2435
261.108398 88.347 -110.1075
261.474609 90.819 -114.9659
261.840820 92.664 -120.7118
262.207031 94.065 -126.9163
262.573242 95.119 -133.3312
262.939453 95.881 -139.7579
263.305664 96.387 -146.0028
263.671875 96.663 -151.8594
264.038086 96.733 -157.0999
264.404297 96.626 -161.4730
264.770508 96.377 -164.7130
265.136719 96.042 -166.5664
265.502930 95.693 -166.8580
265.869141 95.424 -165.6025
266.235352 95.329 -163.1219
266.601562 95.473 -160.0516
266.967773 95.858 -157.1415
267.333984 96.431 -154.9723
267.700195 97.119 -153.8125
268.066406 97.857 -153.6726
268.432617 98.599 -154.4347
268.798828 99.321 -155.9529
269.165039 100.009 -158.0989
269.531250 100.653 -160.7704
269.897461 101.248 -163.8829
270.263672 101.791 -167.3604
270.629883 102.279 -171.1310
270.996094 102.710 -175.1285
271.362305 103.088 -179.2964
271.728516 103.414 176.4098
272.094727 103.691 172.0239
272.460938 103.921 167.5726
272.827148 104.107 163.0806
273.193359 104.249 158.5714
273.559570 104.351 154.0662
273.925781 104.418 149.5771
274.291992 104.451 145.1062
274.658203 104.455 140.6421
275.024414 104.429 136.1669
275.390625 104.373 131.6631
275.756836 104.283 127.1202
276.123047 104.154 122.5387
276.489258 103.982 117.9285
276.855469 103.763 113.3048
277.221680 103.493 108.6870
277.587891 103.165 104.0978
277.954102 102.774 99.5697
278.320312 102.312 95.1512
278.686523 101.771 90.9132
279.052734 101.144 86.9535
279.418945 100.426 83.3981
279.785156 99.616 80.4039
280.151367 98.717 78.1600
280.517578 97.739 76.8914
280.883789 96.705 76.8618
281.250000 95.656 78.3590
281.616211 94.665 81.6343
281.982422 93.839 86.7473
282.348633 93.305 93.3335
282.714844 93.153 100.4922
283.081055 93.379 107.0791
283.447266 93.883 112.2429
283.813477 94.537 115.6830
284.179688 95.236 117.5107
284.545898 95.915 118.0063
284.912109 96.538 117.4664
285.278320 97.087 116.1484
285.644531 97.553 114.2664
286.010742 97.935 112.0033
286.376953 98.234 109.5236
286.743164 98.454 106.9771
287.109375 98.608 104.4946
287.475586 98.709 102.1779
287.841797 98.775 100.0872
288.208008 98.824 98.2388
288.574219 98.872 96.6100
288.940430 98.930 95.1544
289.306641 99.004 93.8199
289.672852 99.098 92.5588
290.039062 99.215 91.3301
290.405273 99.357 90.0933
290.771484 99.524 88.8035
291.137695 99.718 87.4110
291.503906 99.934 85.8668
291.870117 100.168 84.1295
292.236328 100.415 82.1702
292.602539 100.665 79.9741
292.968750 100.914 77.5387
293.334961 101.153 74.8715
293.701172 101.378 71.9889
294.067383 101.584 68.9137
294.433594 101.767 65.6740
294.799805 101.924 62.3002
295.166016 102.055 58.8239
295.532227 102.159 55.2736
295.898438 102.237 51.6735
296.264648 102.290 48.0416
296.630859 102.319 44.3912
296.997070 102.325 40.7349
297.363281 102.306 37.0881
297.729492 102.263 33.4730
298.095703 102.198 29.9159
298.461914 102.114 26.4399
298.828125 102.014 23.0569
299.194336 101.906 19.7581
299.560547 101.790 16.5164
299.926758 101.668 13.2968
